110
110
110
110
111
112
112
112
112
112
112
113
113
113
114
115
116
116
116
116
116
117
118
120
120
121
121
121
122
123
124
125
126
126
128
128
130
131
131
132
133
134
135
136
137
137
138
138
139
139
139
139
138
137
134
131
128
125
122
119
115
112
110
108
106
105
103
103
102
102
102
102
102
102
103
103
103
104
104
104
104
104
103
103
103
103
103
103
104
104
104
104
104
104
104
104
104
105
105
105
106
106
104
103
103
104
104
105
104
104
104
104
104
104
104
104
104
104
104
104
104
104
104
104
105
106
107
107
108
109
109
108
109
109
109
108
106
106
106
105
105
105
105
106
105
105
106
106
106
105
105
105
106
108
109
110
114
122
140
160
183
199
209
203
177
147
129
121
117
113
111
109
108
107
106
105
106
106
107
107
108
108
107
107
107
108
108
109
110
110
111
112
113
113
114
115
115
116
118
118
118
118
119
121
122
123
123
124
125
127
128
129
131
132
134
134
135
137
138
139
139
139
140
141
141
141
141
142
141
139
137
134
132
128
125
121
118
116
113
111
109
107
107
106
105
104
104
104
104
104
105
105
106
106
106
106
107
106
106
107
107
107
108
108
108
108
108
109
109
109
109
110
110
110
111
111
111
111
111
111
111
111
111
111
111
111
111
111
111
112
112
113
112
112
112
112
111
111
112
113
113
113
113
113
114
115
116
116
116
117
116
116
116
115
114
114
113
112
113
113
113
113
113
113
113
113
113
113
113
114
115
117
117
118
122
133
152
174
196
212
222
214
186
156
138
131
125
121
119
116
115
115
114
114
114
114
114
114
113
114
113
113
114
114
115
115
116
117
117
117
117
118
119
119
120
121
121
122
123
123
124
124
125
126
127
128
129
129
131
132
133
134
135
137
138
140
141
142
142
142
143
143
143
143
144
144
143
142
139
137
133
130
127
124
121
118
116
114
112
111
110
109
108
108
109
109
109
108
108
108
108
109
109
110
110
110
109
110
110
109
110
110
110
110
110
110
111
112
112
112
112
112
112
111
112
112
112
112
112
112
112
112
112
113
113
112
112
112
112
111
112
112
112
113
112
112
112
111
111
111
112
113
113
113
114
116
116
116
116
116
115
115
115
114
113
113
112
113
112
112
111
112
112
112
113
113
114
113
113
114
117
117
117
117
120
130
148
168
192
210
222
218
193
162
142
133
127
123
120
117
116
115
113
113
112
110
106
104
103
104
104
107
105
105
106
108
111
112
113
114
115
116
117
118
118
118
118
119
120
121
122
122
123
124
125
126
127
128
130
132
133
134
135
136
137
139
140
140
141
141
142
142
142
142
142
142
141
140
138
136
133
130
127
123
120
117
116
113
110
108
107
105
105
105
105
106
105
104
105
105
105
106
107
107
108
109
108
107
107
107
107
107
107
108
108
108
108
109
109
108
108
108
109
109
109
109
108
108
109
108
109
109
110
110
110
110
110
111
111
110
110
110
111
110
110
109
110
110
111
111
111
110
110
110
111
111
111
111
112
113
113
113
114
114
113
114
114
115
115
115
113
111
111
111
111
112
112
112
112
111
110
111
111
112
112
112
113
115
115
115
119
131
150
173
196
213
223
213
184
154
136
128
123
119
116
114
112
112
111
110
110
111
111
111
111
111
111
111
112
112
113
114
116
116
115
115
116
116
117
117
117
118
119
120
121
122
122
123
124
125
126
127
129
130
131
132
133
135
137
139
140
140
139
140
141
142
143
143
143
143
143
144
144
143
142
141
139
136
131
126
123
120
116
113
111
110
108
107
106
106
106
105
105
105
106
106
106
105
106
106
106
107
108
108
107
107
107
107
107
108
109
109
110
109
109
109
109
109
110
110
110
110
110
110
110
110
110
111
111
111
110
110
109
110
110
111
111
111
111
111
111
111
111
111
112
111
111
111
112
112
112
112
111
110
111
111
112
113
113
114
116
116
116
116
117
116
115
114
113
112
112
112
112
112
112
112
112
112
112
112
112
113
113
113
114
115
115
114
118
128
146
166
190
208
221
220
196
162
140
129
124
121
118
117
115
114
113
112
112
112
111
111
111
112
112
112
113
114
114
113
113
114
114
115
116
116
116
117
117
118
118
119
120
121
121
122
122
123
124
125
126
127
128
129
130
130
131
132
133
135
136
137
138
139
139
139
140
141
141
141
141
139
138
135
131
127
123
119
115
112
108
106
104
103
102
101
100
99
99
98
98
98
99
100
100
100
100
100
99
99
100
101
101
101
100
101
102
101
101
102
103
103
103
103
103
103
104
104
103
103
102
103
104
104
104
104
104
104
104
104
104
105
105
105
105
104
104
104
104
105
105
105
105
105
105
105
104
104
105
105
106
106
106
106
106
107
108
109
109
110
109
110
110
108
108
107
107
107
106
107
107
107
107
107
107
106
107
107
108
108
109
110
111
111
116
125
141
162
185
202
214
212
189
157
136
125
120
117
115
114
113
113
112
112
111
111
111
111
111
112
112
113
113
113
113
114
115
116
116
117
117
118
118
119
119
120
120
121
122
123
124
125
127
127
128
129
129
131
132
134
136
137
138
139
140
141
142
143
145
145
145
146
147
147
148
147
147
145
143
141
138
134
130
125
121
117
114
112
110
109
108
107
107
106
104
104
104
105
105
105
107
107
107
107
106
107
107
108
108
108
108
108
109
109
109
110
110
110
110
110
110
111
111
111
111
110
111
110
110
110
111
112
111
110
110
110
110
110
111
112
112
112
110
110
110
110
111
111
111
112
112
112
111
112
111
111
112
113
113
113
113
114
116
116
117
116
116
116
115
114
114
113
112
112
112
112
112
112
112
112
112
112
112
112
113
114
114
115
115
116
120
131
149
170
194
210
222
217
193
160
139
128
123
119
117
115
114
114
113
113
112
111
111
111
111
112
112
112
113
113
114
115
114
114
115
115
116
116
116
117
118
118
119
119
120
120
121
121
122
123
124
125
126
127
129
129
130
132
133
135
136
138
140
142
143
142
143
143
143
144
145
145
146
145
144
142
139
136
132
128
124
120
117
114
112
110
109
107
105
104
104
103
103
103
103
104
105
105
105
105
105
106
106
107
107
107
107
107
107
107
107
108
108
108
108
108
108
108
109
109
109
110
109
109
109
109
109
110
110
110
110
109
109
109
110
110
110
111
111
110
110
110
110
110
111
112
111
111
111
111
111
111
111
111
111
111
112
111
111
111
112
112
112
112
111
112
114
115
115
116
116
116
116
117
116
115
114
113
113
112
111
111
112
112
112
112
112
113
113
114
115
115
115
116
116
116
119
126
140
160
182
203
217
224
212
181
153
135
128
124
121
118
117
115
114
113
112
111
111
111
112
112
113
113
113
112
112
112
113
113
114
114
115
116
116
117
117
118
118
119
118
119
119
120
121
123
123
124
125
126
127
128
129
131
133
134
134
135
137
139
140
141
142
142
142
143
144
144
144
143
142
140
138
135
130
130
126
122
119
115
112
110
107
105
104
103
103
102
102
102
102
102
102
103
103
103
103
103
103
104
103
104
104
104
104
105
105
106
106
106
106
106
106
106
107
107
106
106
106
106
107
107
107
106
106
107
107
107
107
107
108
108
108
108
108
109
109
109
109
109
110
110
109
110
110
110
110
111
111
111
111
110
110
111
112
112
111
111
110
111
110
110
112
113
113
114
115
115
115
115
115
115
114
114
114
113
111
111
111
110
110
110
111
111
110
110
110
110
111
112
111
113
113
113
114
119
131
150
173
198
214
223
214
185
154
134
125
121
117
115
113
112
111
111
110
110
110
110
109
110
110
110
110
110
111
111
112
112
113
113
113
113
113
114
115
116
117
116
116
116
117
119
119
120
121
122
123
124
126
127
128
128
129
130
132
134
136
138
139
139
139
139
140
141
141
142
142
141
141
139
136
133
129
125
121
117
113
110
108
106
104
102
100
99
99
98
98
99
98
98
98
98
98
98
98
99
99
100
100
100
100
100
100
101
101
101
102
102
101
101
101
102
102
102
102
102
103
103
102
103
102
103
103
103
103
104
104
104
104
104
105
105
105
105
104
103
103
103
103
105
105
105
105
104
104
104
104
105
106
106
106
105
105
105
105
106
105
105
106
108
110
111
111
110
110
110
111
110
108
108
107
107
107
107
108
108
107
107
107
107
108
109
109
109
110
111
113
114
114
117
125
141
162
185
203
215
216
195
162
140
129
124
121
118
116
114
113
112
112
112
112
112
112
113
113
113
113
113
114
115
116
116
115
115
116
117
118
119
119
119
120
121
122
122
123
124
124
125
126
127
128
129
130
131
133
135
137
138
139
141
142
144
145
146
147
148
148
149
149
150
151
150
150
148
145
142
138
135
131
126
122
119
117
114
111
109
107
106
106
106
106
105
105
106
106
106
106
106
106
107
107
107
107
107
108
108
108
109
109
109
110
110
109
109
109
109
109
110
110
110
111
111
110
110
110
111
110
110
110
110
110
111
111
111
111
111
111
112
111
111
110
110
111
111
111
111
111
111
111
111
112
112
112
112
112
112
113
112
112
111
111
111
112
114
115
115
115
114
114
115
116
116
116
115
114
113
113
114
113
113
112
111
112
113
113
113
113
113
113
113
114
116
116
116
117
122
136
136
156
180
202
217
227
215
185
155
137
130
125
120
116
115
114
113
113
113
113
112
112
113
111
108
106
106
106
105
107
106
105
104
107
108
111
114
115
116
118
119
120
121
122
121
122
123
124
125
125
126
128
129
130
131
133
135
137
138
139
141
143
144
145
146
146
146
147
146
147
147
148
147
146
143
139
136
130
126
122
118
115
112
110
108
107
105
104
104
103
103
104
104
104
104
103
102
102
102
101
102
103
103
104
104
103
103
103
104
105
106
105
105
105
106
106
105
106
106
108
108
107
107
107
108
108
109
110
109
108
107
106
106
107
107
107
108
107
106
107
107
107
107
107
107
107
107
108
109
108
107
107
106
105
106
106
106
106
106
106
106
106
106
108
109
109
108
107
107
108
108
106
106
107
105
104
103
103
104
105
105
104
105
105
105
105
104
105
106
107
107
106
110
120
140
163
188
207
219
217
193
158
134
121
114
109
106
104
103
102
101
101
101
101
100
100
99
98
99
100
100
99
100
101
102
102
103
103
103
103
104
106
107
107
108
108
108
108
109
109
110
111
112
114
116
118
120
120
121
123
124
125
126
127
129
131
131
132
133
133
134
134
135
136
137
137
136
135
133
130
126
123
119
114
110
107
104
102
100
99
98
97
95
94
95
95
96
95
95
96
96
96
96
96
96
96
97
97
98
99
98
98
98
98
98
98
98
99
100
100
100
101
101
102
102
102
101
101
101
102
103
103
103
102
101
102
102
102
103
103
104
104
103
103
103
104
106
107
105
104
103
103
103
104
104
105
104
105
105
106
107
108
108
108
109
110
111
110
108
105
105
105
106
107
107
106
105
105
105
105
106
106
107
107
108
110
110
110
112
117
133
154
178
197
207
212
198
167
141
127
122
117
113
111
110
109
109
109
108
108
108
109
109
109
109
109
109
109
110
111
112
112
112
113
112
113
114
114
115
116
116
117
117
118
117
117
119
120
121
122
124
125
127
128
129
130
131
131
133
135
137
138
139
140
141
141
141
141
142
143
144
143
141
139
137
134
131
126
121
118
115
114
111
108
104
102
101
101
101
101
101
101
102
102
102
102
103
103
103
104
104
104
105
104
104
105
105
105
106
106
107
108
107
106
106
106
106
106
107
107
107
108
108
107
107
107
107
108
108
107
108
108
108
107
107
107
108
110
110
109
109
108
108
107
108
109
110
110
109
109
108
108
108
108
109
108
108
108
110
112
113
113
113
113
113
112
112
111
110
110
110
110
109
109
109
109
109
109
109
109
110
111
110
110
112
112
113
118
128
147
169
192
208
220
218
195
162
139
127
122
118
115
113
111
109
109
109
109
108
108
109
109
109
109
109
110
110
111
111
112
112
113
113
113
113
114
114
115
116
116
118
119
119
119
120
120
121
122
123
124
124
125
127
130
131
132
133
135
136
137
137
138
139
140
140
141
142
143
143
142
141
141
138
135
132
128
125
121
117
114
112
110
108
106
105
104
104
105
105
104
104
103
103
103
104
105
105
106
106
106
108
110
111
109
106
104
104
105
105
106
106
107
107
107
108
108
109
109
109
108
108
108
107
107
107
108
109
109
110
110
110
110
110
110
110
111
112
112
111
110
109
109
110
110
109
109
110
110
110
110
111
110
111
113
116
118
118
118
118
119
119
119
118
117
117
115
112
111
110
110
109
109
109
110
110
110
110
110
110
112
113
113
115
121
136
158
183
203
215
221
206
175
147
131
124
120
116
113
113
111
110
109
109
109
109
109
109
108
108
108
109
110
110
110
110
110
111
112
112
113
114
115
116
115
114
114
115
116
117
118
118
118
120
121
121
122
124
126
127
128
129
130
131
133
135
136
137
138
139
140
140
139
139
140
141
141
139
138
137
134
131
128
124
119
116
114
111
108
106
104
102
101
100
101
102
103
103
102
100
100
100
100
101
102
102
102
102
102
103
104
104
104
103
103
103
104
104
104
103
103
103
103
103
103
103
103
104
105
107
105
104
104
104
105
104
105
105
104
104
104
106
107
107
104
103
104
107
108
109
107
105
106
108
109
112
113
113
110
109
109
108
107
107
106
106
105
104
105
106
108
108
108
108
108
111
114
113
110
108
110
111
113
118
129
148
169
192
206
216
210
185
155
137
127
121
118
115
113
113
115
116
115
112
111
110
110
110
110
111
111
112
113
114
115
116
117
116
116
116
117
118
117
118
119
120
122
123
123
122
122
123
124
126
127
128
129
131
133
135
137
139
139
139
141
141
142
145
146
146
144
144
144
144
145
145
145
144
141
138
134
130
128
126
122
116
112
109
107
106
106
106
106
104
103
103
103
104
104
104
104
104
105
105
106
107
107
108
109
108
108
108
108
107
109
111
112
110
108
108
108
109
110
109
110
111
112
112
112
112
113
112
112
112
112
112
112
113
112
112
112
112
112
112
112
112
112
112
112
112
112
112
113
113
114
116
116
116
116
117
117
117
117
116
115
114
113
113
113
115
116
117
116
113
113
113
113
113
113
114
116
116
116
117
124
141
162
186
208
222
229
216
184
154
138
130
125
122
120
118
114
113
113
113
113
113
113
112
112
113
113
114
114
114
114
113
114
115
115
115
116
118
118
119
121
120
119
120
122
124
125
125
124
124
125
126
127
129
131
132
134
134
136
137
138
139
140
142
143
144
145
145
145
147
149
150
148
144
141
138
135
131
128
124
120
116
115
113
111
109
108
107
107
107
106
107
106
105
104
104
104
105
106
107
108
108
108
109
110
111
111
112
112
113
113
113
115
115
114
110
110
111
111
112
113
113
112
112
112
112
113
113
115
115
115
115
114
114
112
111
109
107
106
106
107
107
107
107
107
107
107
107
107
108
108
109
110
111
110
110
111
110
110
111
111
111
110
108
106
106
106
106
106
107
107
107
108
108
107
107
107
108
110
112
112
112
115
124
143
165
189
205
216
212
188
156
134
123
118
115
112
111
109
108
107
106
106
105
105
105
105
106
106
106
107
106
106
107
108
108
109
111
112
112
111
110
111
110
110
111
112
113
114
115
116
117
118
120
121
123
124
124
125
126
128
129
131
133
135
136
138
139
140
139
138
138
138
137
138
138
137
135
132
128
125
121
117
114
110
107
106
105
104
104
103
103
102
102
102
102
102
102
102
103
103
104
104
105
106
106
106
106
107
108
109
109
109
109
109
109
110
111
112
113
113
111
111
112
112
113
113
114
114
114
116
118
118
118
119
120
121
121
123
123
122
123
124
125
126
126
127
128
130
131
132
132
133
135
136
135
134
133
132
131
132
132
132
132
133
134
133
134
134
133
133
131
131
131
132
134
135
135
135
140
154
176
200
219
231
236
222
192
165
151
146
142
139
136
134
132
131
130
130
129
130
131
132
132
132
131
130
131
132
133
133
133
133
132
133
133
134
135
135
136
136
135
136
137
137
138
139
140
140
141
142
144
145
146
148
149
150
150
151
153
155
156
158
158
158
159
159
159
159
160
160
160
159
156
153
149
146
143
139
136
133
130
127
125
124
122
121
120
120
120
119
119
120
120
121
121
122
122
121
122
123
124
126
127
125
123
122
122
123
124
125
125
125
125
125
125
125
124
124
125
125
126
126
126
126
125
126
126
126
125
124
124
124
124
124
124
125
125
124
124
124
124
125
125
126
127
128
129
130
131
133
134
135
135
136
136
137
138
138
138
138
137
137
137
137
137
137
139
139
139
139
140
141
142
142
142
144
145
146
148
152
164
179
201
221
236
243
230
199
174
160
156
153
151
149
148
146
145
144
144
144
144
144
143
144
144
143
144
144
145
145
145
146
145
145
145
146
147
148
148
148
147
147
149
154
157
158
159
159
159
159
159
160
162
163
165
166
167
169
171
173
173
172
173
174
175
176
177
178
180
178
177
176
174
171
169
167
163
159
155
151
147
144
142
140
139
138
137
136
135
134
136
136
137
137
137
137
137
136
137
138
138
138
139
139
140
140
140
142
141
141
140
141
141
141
141
141
142
142
142
141
142
142
141
142
142
143
142
142
142
143
143
143
143
142
142
142
143
142
142
143
143
143
142
141
140
141
143
144
145
146
147
145
144
145
145
146
146
144
143
142
143
143
143
143
143
143
144
145
145
147
147
146
146
146
147
148
149
149
150
155
165
179
198
214
225
232
221
193
170
159
155
153
151
149
148
148
146
145
144
143
143
143
144
144
143
144
144
144
144
143
144
144
144
144
144
144
145
146
146
147
147
147
147
147
148
148
148
149
151
152
152
153
154
154
156
157
158
160
161
162
163
163
164
165
166
167
167
167
166
165
164
164
162
160
157
153
149
145
141
137
134
131
128
126
124
124
123
122
120
120
119
120
120
121
120
121
121
121
121
121
122
123
124
125
126
124
124
124
124
124
124
124
124
125
125
125
127
128
129
129
129
128
128
127
126
126
125
126
126
126
127
126
126
126
127
126
126
126
125
126
126
127
127
127
127
129
131
130
130
130
129
129
128
129
128
127
127
126
126
126
126
126
126
126
127
127
127
128
129
130
129
130
131
131
133
138
148
164
184
204
217
226
218
189
161
147
141
137
134
132
131
130
131
131
130
130
130
130
131
131
131
132
133
133
132
133
133
132
133
133
133
133
133
134
134
134
134
135
136
136
136
136
136
136
137
137
138
140
141
143
144
145
146
147
149
151
152
152
153
154
155
156
156
157
157
157
157
157
156
155
152
149
146
142
138
133
129
126
123
121
120
118
117
116
115
114
114
114
114
115
115
115
116
116
116
116
116
117
117
117
118
119
119
120
120
120
120
120
120
121
120
120
121
120
120
120
119
119
120
121
121
120
119
118
119
117
117
117
117
117
117
118
117
117
117
117
117
117
117
117
116
116
116
116
116
117
116
116
117
118
120
120
121
121
119
119
119
119
117
117
116
116
116
115
115
116
116
116
115
115
115
116
116
116
116
117
119
119
121
124
133
150
169
191
207
219
215
189
157
138
130
127
124
122
119
118
117
117
116
116
117
117
117
117
117
118
119
119
120
121
121
121
122
122
122
123
124
125
125
126
127
127
128
128
129
129
130
131
132
133
133
135
135
136
136
138
140
142
144
145
146
147
148
149
149
150
150
149
149
149
149
149
147
145
141
138
134
130
126
123
119
116
113
111
109
108
107
106
105
104
104
104
104
103
103
104
105
104
104
104
104
104
103
104
104
103
104
104
104
104
104
104
104
104
104
104
104
104
103
104
103
104
104
104
104
104
104
104
105
105
105
105
105
105
106
106
106
106
106
106
105
105
106
106
106
106
106
106
106
106
106
106
106
106
107
108
109
110
111
111
111
110
109
108
106
105
105
104
104
104
103
103
103
104
104
104
105
105
105
105
107
108
109
110
113
121
137
155
177
193
205
207
188
155
132
121
117
115
112
109
106
105
106
107
109
109
108
107
107
107
107
107
107
107
107
109
111
111
112
112
114
114
113
112
111
112
115
117
119
119
118
118
119
121
122
123
124
126
126
128
130
131
131
132
134
137
140
142
142
142
142
142
141
140
138
136
133
134
136
136
135
136
137
138
136
131
124
120
117
114
112
109
107
106
109
113
112
111
110
108
107
107
108
111
114
114
115
114
112
113
114
113
112
112
116
116
116
115
111
110
110
113
118
119
117
115
116
116
115
113
115
116
116
116
116
117
117
117
118
117
117
116
117
117
114
111
109
110
112
118
121
120
118
119
118
116
115
115
116
116
115
111
106
105
107
108
108
109
110
110
109
109
110
110
109
108
107
104
107
109
110
112
116
127
145
168
168
189
204
213
203
172
138
120
117
115
109
110
113
114
112
111
112
113
111
107
103
102
103
103
104
106
107
108
108
108
108
108
109
109
109
110
111
111
111
110
111
112
113
114
115
118
120
120
121
122
123
124
125
126
127
128
129
131
132
133
132
133
133
133
132
131
130
131
132
132
131
129
125
122
118
114
110
107
103
101
99
97
96
96
95
95
94
94
94
94
94
94
95
94
94
93
93
92
92
91
90
90
89
89
88
88
88
88
88
88
88
88
88
89
89
89
89
89
90
89
89
89
90
90
90
90
90
90
90
90
90
90
91
91
91
91
91
91
91
91
91
92
93
93
94
96
96
96
97
98
97
97
96
95
95
95
94
94
94
93
93
93
94
96
97
97
97
97
97
97
97
97
96
96
99
107
126
147
168
183
195
195
173
142
123
115
111
107
104
101
98
94
93
95
100
100
100
99
99
98
98
98
98
100
100
100
100
101
102
103
104
105
105
106
106
107
108
108
109
109
110
111
111
112
113
114
115
116
117
117
118
120
123
126
127
126
127
129
131
132
133
133
133
134
134
134
134
134
132
130
127
124
121
118
116
113
113
111
108
106
104
104
103
102
102
101
101
101
101
102
102
103
103
103
104
104
105
105
105
104
104
105
106
105
105
106
106
108
109
108
109
110
111
111
111
111
110
111
111
111
111
112
113
113
114
114
114
114
113
113
113
115
116
117
117
116
116
118
119
120
120
121
121
121
121
120
119
118
117
117
117
116
116
117
117
117
117
118
118
119
120
120
120
121
123
123
124
128
136
150
167
186
197
205
205
185
156
138
132
129
127
123
121
120
119
119
118
118
118
118
118
118
119
120
120
121
121
121
122
122
123
123
123
123
124
124
124
124
126
127
128
128
129
129
131
131
132
133
133
134
135
136
136
138
139
141
143
143
145
145
146
147
149
150
151
152
152
152
152
151
150
148
144
141
137
132
128
124
120
118
116
114
114
113
112
112
112
112
112
112
112
112
112
112
112
113
113
114
115
114
114
114
114
115
115
115
115
115
116
116
116
115
116
116
116
116
116
117
117
118
118
117
117
117
117
117
118
119
118
118
118
117
117
117
118
117
118
119
120
122
122
123
123
124
124
123
123
123
122
121
121
121
121
121
121
121
121
121
122
122
122
122
122
122
122
123
124
123
125
132
145
162
183
202
213
220
208
178
152
139
133
129
126
124
122
120
120
119
119
119
119
119
119
120
120
120
120
120
121
122
122
122
123
123
123
123
124
125
125
125
125
126
126
127
128
128
129
130
130
131
132
133
134
135
136
137
138
139
140
141
142
142
143
143
143
143
142
142
142
142
142
141
140
138
135
132
129
126
123
121
118
116
114
113
113
111
110
110
110
110
109
110
110
110
111
111
112
112
112
112
113
113
112
112
112
113
113
113
113
113
113
113
114
114
113
113
113
113
113
113
113
113
113
113
113
113
112
113
112
112
112
112
112
113
113
112
112
112
112
113
114
115
116
117
118
118
118
118
118
117
118
117
116
115
115
115
114
115
115
116
115
116
115
115
115
115
115
116
116
118
119
119
122
129
144
162
185
204
217
222
205
173
148
135
130
126
123
121
119
118
117
117
117
116
116
117
117
117
117
117
117
118
118
119
119
120
120
120
121
121
121
121
122
123
124
124
125
125
126
127
128
129
130
130
131
132
133
134
135
136
138
139
140
142
142
143
143
143
144
145
145
145
146
147
146
145
144
142
142
139
136
133
129
126
123
121
119
117
116
113
112
111
111
110
110
110
110
110
111
111
111
111
111
111
111
111
111
111
111
111
111
111
112
112
112
112
112
112
112
112
112
112
112
111
111
111
111
111
111
111
111
111
111
111
112
111
111
110
111
111
112
112
111
111
112
112
113
114
115
114
114
114
115
114
114
114
113
112
111
111
111
111
111
111
111
111
111
111
111
111
111
111
112
113
113
113
116
125
142
162
186
204
217
217
194
160
137
127
122
119
116
114
113
111
110
110
110
110
110
109
110
110
110
111
111
111
112
112
112
113
113
113
114
114
115
115
116
116
117
117
118
119
119
120
121
122
123
124
124
125
127
128
129
130
131
132
134
135
135
136
136
137
137
138
138
138
138
138
137
136
134
131
128
124
121
117
113
110
107
104
102
100
99
98
98
98
97
97
97
97
97
98
97
97
97
98
98
99
99
99
98
99
99
99
99
99
99
99
99
99
99
100
100
100
100
100
100
100
100
100
100
100
100
100
100
100
100
100
100
100
100
100
100
100
100
100
100
100
101
102
104
104
104
104
103
103
103
103
103
102
101
101
100
100
100
100
100
101
101
101
101
101
101
101
101
101
102
104
104
106
110
120
137
158
180
194
203
198
171
140
117
111
106
101
96
97
93
95
93
95
96
98
99
99
100
101
102
102
102
102
102
103
103
103
104
104
106
107
108
108
108
109
109
110
111
111
112
113
113
114
115
116
117
119
120
121
122
124
125
127
128
129
129
131
131
132
132
133
133
133
133
133
133
131
129
126
123
120
117
113
110
107
105
103
102
101
100
99
99
98
98
98
99
100
100
100
100
100
100
101
101
101
102
103
103
103
103
104
104
104
104
104
104
104
104
104
105
104
105
104
105
105
105
105
105
106
106
106
106
106
106
106
106
106
106
106
106
107
108
108
110
110
111
111
111
111
111
110
109
108
108
107
108
107
108
107
108
108
108
109
109
108
109
109
109
110
112
112
113
117
127
145
165
188
203
214
211
187
155
135
126
121
118
116
114
112
111
111
110
110
110
110
110
110
110
111
111
111
112
112
112
113
113
114
114
114
115
115
115
117
117
118
118
119
119
120
121
122
123
124
125
126
127
128
130
132
133
134
135
136
138
139
140
140
140
141
141
141
141
141
141
141
139
138
136
133
130
126
123
119
116
113
111
109
109
107
107
106
106
105
106
106
106
106
106
106
106
106
107
107
108
107
108
108
108
108
108
108
108
109
109
109
109
109
109
109
109
109
109
109
109
109
109
110
110
110
110
110
110
110
110
110
110
110
110
111
111
111
110
110
110
110
110
110
111
111
111
113
114
114
114
114
114
114
114
113
111
111
110
110
110
110
111
111
111
111
111
111
111
111
111
112
112
113
114
114
115
119
130
148
168
190
206
218
213
189
156
136
127
123
119
117
115
113
112
112
112
112
112
111
112
111
112
112
112
113
113
114
114
114
115
115
116
116
117
117
118
118
119
119
120
120
121
122
122
123
124
125
126
127
128
130
131
132
134
135
136
137
139
140
141
142
142
142
143
143
144
144
144
143
141
139
136
133
130
125
122
119
115
113
110
109
107
106
105
105
105
104
104
104
104
105
104
105
105
106
106
106
107
107
107
107
108
108
107
107
108
108
108
108
108
108
108
108
108
108
108
108
109
109
109
109
109
109
109
109
110
110
110
111
111
111
111
110
111
111
111
111
111
112
112
112
111
111
111
111
111
111
111
111
112
112
113
114
115
114
114
115
114
114
113
112
111
111
110
110
110
111
111
111
111
111
111
112
111
111
111
111
112
113
114
114
116
122
136
155
178
199
214
222
208
177
149
132
125
121
118
116
114
113
112
111
111
111
111
111
112
112
112
112
112
113
113
113
114
114
115
115
116
117
117
117
118
118
119
120
121
121
122
122
123
124
124
125
126
128
129
130
132
133
134
136
137
139
140
141
142
142
143
144
144
145
145
145
145
144
142
139
136
133
129
125
122
118
115
113
110
109
108
107
106
106
105
105
105
106
105
106
106
106
106
106
106
106
106
106
107
107
107
107
107
107
108
107
108
108
108
108
108
108
108
109
108
109
109
109
109
109
109
109
109
109
109
109
109
110
110
110
110
110
110
110
109
109
109
110
110
110
110
110
110
110
110
111
111
111
111
111
111
111
111
111
111
112
112
114
115
115
115
115
115
115
114
113
112
111
111
111
111
111
111
111
111
111
112
112
111
112
112
113
113
113
114
114
115
118
128
146
167
191
207
219
216
193
160
138
128
122
119
116
114
113
112
111
110
110
110
110
110
110
110
110
110
110
110
110
110
111
111
112
112
112
112
113
113
113
114
115
116
116
116
117
117
118
118
119
121
122
122
124
125
126
127
129
130
131
132
134
135
136
137
138
139
139
140
140
140
140
139
138
136
133
130
126
122
118
115
111
108
106
103
102
100
100
99
98
98
98
98
98
99
99
99
99
99
99
100
100
100
100
100
100
100
100
100
100
101
101
101
101
102
102
102
102
102
103
103
103
103
103
103
103
102
103
103
103
103
103
102
102
103
103
103
103
103
103
104
104
104
104
104
104
104
104
104
104
105
105
105
104
104
104
104
105
105
105
105
105
106
107
108
108
108
108
108
107
107
106
105
105
105
105
104
105
105
105
106
106
106
106
106
106
106
106
107
108
109
109
111
116
130
148
170
190
203
211
199
169
142
127
120
117
114
112
110
109
108
108
107
107
108
108
107
108
109
109
110
110
110
111
111
111
111
112
112
113
113
114
114
115
116
117
118
118
119
120
120
121
122
124
125
126
127
128
130
131
133
134
136
137
139
140
141
142
143
144
144
144
144
145
145
144
142
140
136
133
129
124
121
117
114
111
109
107
106
105
105
104
104
104
103
103
103
103
103
103
103
104
104
104
104
104
104
104
105
105
106
106
106
107
108
108
108
108
108
108
109
109
109
109
109
109
109
109
109
109
109
109
109
109
110
110
110
110
109
110
110
110
110
110
110
110
110
110
111
111
111
112
112
112
113
112
112
113
113
113
113
113
113
113
113
113
113
113
113
113
113
113
114
115
117
117
117
117
118
118
118
117
116
115
115
114
114
114
114
114
114
114
114
114
115
115
114
115
115
115
117
117
117
118
124
137
157
180
201
216
225
215
186
156
138
129
125
121
119
117
116
115
114
113
113
113
113
114
113
113
114
114
115
115
116
116
116
116
117
117
118
118
119
119
120
120
121
121
122
123
123
124
125
126
127
128
129
131
132
133
135
136
137
139
140
141
143
144
145
146
147
148
149
149
149
149
148
147
145
142
138
134
131
127
123
119
117
115
112
110
109
108
107
107
107
107
107
107
107
107
107
107
107
108
108
108
108
109
109
109
109
109
109
109
109
109
109
109
109
109
109
109
109
109
109
109
109
109
110
110
110
110
110
110
110
110
110
110
110
110
110
111
111
111
111
111
111
112
112
111
112
111
111
112
111
112
112
113
112
113
113
112
113
113
113
113
113
113
113
113
113
113
113
113
113
113
113
113
113
114
114
115
116
116
117
117
117
117
117
117
116
114
114
114
113
113
113
113
113
113
113
113
114
113
114
114
114
114
115
116
116
118
123
138
158
181
202
216
225
214
184
154
137
128
124
120
118
116
115
114
113
113
112
112
113
113
113
113
113
113
114
114
115
115
115
116
116
116
116
117
117
118
118
119
120
120
121
121
121
123
123
124
125
126
128
129
130
131
133
134
135
138
139
141
142
143
144
145
145
146
147
147
148
148
148
147
145
142
139
135
131
127
123
119
115
113
110
109
107
106
105
105
104
104
104
104
104
104
104
104
104
104
104
105
105
105
106
106
106
106
106
106
106
106
106
106
106
106
106
106
106
106
106
106
107
107
107
107
107
108
108
108
107
107
107
107
107
108
108
108
108
108
108
108
108
109
109
109
109
109
108
109
109
109
109
110
110
110
110
110
110
110
110
110
110
110
110
110
110
110
110
110
110
110
110
110
110
110
110
110
110
110
111
111
112
113
114
113
114
114
114
114
114
112
112
111
111
111
110
110
110
110
111
111
111
110
111
110
110
111
111
111
111
113
112
114
118
131
150
172
194
208
218
210
183
151
133
125
120
117
114
112
110
109
108
108
107
107
107
107
108
108
108
108
108
108
109
109
110
111
111
111
111
112
112
113
114
114
115
115
116
117
117
118
119
119
121
121
122
123
125
126
127
128
130
132
133
134
136
137
138
139
139
140
141
142
142
143
143
142
141
138
135
131
127
123
119
115
111
109
106
104
103
101
100
99
99
99
99
100
99
99
99
99
99
100
100
100
100
100
100
100
101
101
101
101
101
101
102
102
102
102
102
102
102
102
102
102
102
102
102
103
103
103
103
103
103
104
104
104
105
104
105
105
105
106
106
106
106
106
106
106
107
107
107
107
108
108
108
108
108
108
108
108
109
109
109
109
109
109
109
110
110
110
111
110
110
111
111
111
111
110
110
111
111
111
112
113
114
115
115
115
116
116
116
115
115
114
113
113
112
113
112
112
112
112
112
113
112
112
113
113
114
114
114
116
116
116
119
126
142
161
185
203
215
220
204
172
146
133
126
123
120
118
116
115
114
113
113
113
113
112
112
112
113
113
113
113
113
114
114
114
114
115
116
116
117
117
118
118
119
119
120
121
121
122
123
124
125
125
126
127
129
129
131
132
134
135
137
138
140
141
143
144
145
145
146
147
148
148
149
149
148
147
145
142
139
135
131
127
123
120
116
113
111
109
108
107
106
106
105
105
105
105
105
105
106
106
106
106
106
106
107
107
107
108
108
108
108
108
109
109
109
109
109
110
110
109
110
110
110
110
110
110
110
110
110
111
111
111
111
111
111
110
110
110
110
111
110
111
111
110
110
111
111
111
111
111
112
111
111
112
112
112
112
112
112
113
112
112
112
112
112
112
113
113
113
113
113
113
113
113
113
114
114
114
114
113
113
113
113
113
113
114
114
115
116
117
118
118
118
118
118
117
117
116
116
115
114
114
113
113
113
113
113
113
113
113
113
114
114
114
114
116
116
116
118
125
140
160
183
203
217
224
212
181
152
136
129
124
121
118
116
115
114
113
113
113
112
112
112
112
112
112
113
114
114
114
114
114
115
116
116
117
118
118
118
119
119
120
120
121
122
123
123
124
125
126
127
128
129
130
132
133
134
136
136
138
139
141
142
144
144
146
147
147
148
149
149
149
149
148
146
145
141
137
133
129
126
122
119
115
112
110
109
107
106
106
105
106
105
105
106
105
106
106
106
106
107
107
106
107
107
108
108
108
108
108
109
109
109
109
109
109
109
109
109
110
110
110
110
110
110
110
110
110
110
110
110
110
110
111
111
111
111
111
111
111
111
111
112
112
112
112
111
111
111
111
112
112
112
112
112
112
112
112
112
112
113
113
113
113
113
113
113
113
113
113
112
112
112
112
112
112
112
111
112
112
114
115
115
115
115
115
115
115
114
113
113
112
111
111
110
110
110
110
110
110
110
110
110
110
110
110
111
113
113
114
118
130
148
170
191
206
216
209
183
152
132
124
119
116
113
111
109
108
108
108
107
107
107
107
107
107
107
108
108
109
109
109
109
109
109
110
111
111
111
111
112
113
113
113
114
114
115
116
116
117
118
118
120
121
122
124
126
127
128
129
130
132
134
135
136
137
137
138
138
139
139
139
139
139
137
135
132
128
125
121
118
114
110
107
105
102
100
99
98
98
97
97
97
97
97
98
98
98
98
99
99
99
99
99
99
99
99
99
99
99
100
100
100
101
101
101
101
101
102
102
102
102
102
102
102
102
103
103
103
103
103
104
104
104
104
104
104
104
105
105
105
105
105
105
106
106
106
106
107
107
107
107
108
108
108
108
108
108
109
109
109
109
109
110
110
110
110
110
110
110
110
110
110
110
110
110
111
112
113
114
114
114
114
114
115
114
114
113
112
111
111
111
111
111
112
111
112
112
112
112
113
113
113
114
115
116
116
119
126
142
162
184
202
214
218
202
169
144
131
126
122
119
117
115
114
113
113
112
113
112
112
113
113
113
113
113
113
113
114
114
115
115
115
116
117
117
118
118
119
119
120
120
121
121
122
123
124
125
125
126
128
129
131
132
133
135
137
138
139
141
142
143
144
145
146
147
147
148
148
148
147
147
145
142
139
135
131
127
123
119
116
113
111
109
107
106
106
106
105
105
105
105
105
105
105
105
105
105
105
106
106
106
107
107
107
107
108
108
108
109
108
109
109
109
109
109
109
109
110
109
110
110
110
110
110
109
109
110
110
110
110
110
110
110
110
110
110
110
110
110
110
110
110
110
111
111
110
110
111
111
111
110
110
110
110
110
111
111
111
111
112
112
112
111
111
111
111
111
111
111
111
112
113
114
115
115
114
114
115
114
114
113
112
112
111
110
110
110
110
110
111
110
110
111
110
111
111
111
111
112
113
113
115
121
134
152
174
195
209
218
209
181
150
132
125
120
117
114
112
111
110
109
109
108
108
108
108
109
110
110
110
110
110
111
111
111
112
112
113
113
114
114
114
115
115
116
117
117
118
118
119
119
121
122
122
123
124
125
127
128
129
131
132
133
134
135
137
138
139
140
140
140
141
141
141
141
141
139
136
134
130
127
123
120
116
113
110
108
106
104
103
103
102
102
102
102
102
102
103
102
102
103
103
103
103
104
104
104
105
106
106
106
106
106
106
106
106
107
107
107
107
108
108
108
108
108
108
108
108
109
109
109
110
109
109
109
109
110
110
110
110
110
110
110
110
111
111
111
111
111
111
111
111
111
111
111
111
111
112
112
112
112
112
113
113
113
112
112
112
112
112
113
113
113
114
116
117
116
116
117
117
116
116
115
114
113
113
113
113
113
113
113
113
113
113
114
114
114
114
114
114
115
116
117
122
132
132
151
172
195
210
221
217
192
159
138
128
123
120
118
116
114
113
113
112
112
112
112
112
113
113
114
114
114
114
114
115
115
116
116
117
117
118
118
119
119
120
120
121
122
122
123
124
125
126
127
128
129
130
130
132
133
135
136
137
139
140
141
143
144
145
145
146
146
146
147
147
146
146
145
143
140
136
132
128
124
121
118
114
112
109
108
107
106
105
105
104
104
104
104
105
105
105
105
105
106
106
106
106
106
107
107
107
107
107
108
108
108
108
108
109
109
109
109
109
109
109
109
109
110
109
109
110
110
110
110
111
111
111
111
111
111
111
111
111
111
111
111
111
111
111
111
111
111
111
112
112
112
112
112
112
112
112
112
112
112
111
112
112
112
112
113
114
114
116
116
116
117
117
116
116
116
115
114
113
112
113
113
113
112
112
112
112
113
113
113
113
113
113
114
115
116
117
121
131
150
171
194
210
222
217
190
157
138
128
124
120
118
115
114
113
112
112
111
111
111
111
111
112
112
112
112
113
113
114
114
114
115
115
115
116
117
117
118
118
119
120
120
121
121
122
123
124
125
125
127
127
129
130
132
133
134
134
136
137
139
140
141
142
143
144
144
145
146
146
146
146
145
143
141
138
135
131
126
122
119
115
113
110
108
107
106
105
104
103
103
103
103
103
103
102
103
103
104
104
104
105
105
105
105
106
106
106
106
106
107
107
107
107
108
108
107
107
108
108
108
108
108
108
108
108
109
108
109
109
109
109
109
109
109
109
110
109
109
109
109
109
109
110
110
110
110
110
110
109
109
110
110
110
110
111
111
111
111
110
111
111
111
111
112
112
113
114
114
114
114
114
114
114
114
112
111
111
111
110
110
110
110
110
110
111
111
111
111
111
111
111
112
113
114
115
119
130
148
168
192
208
219
215
190
157
135
125
120
117
114
112
111
109
109
108
108
108
107
108
108
109
109
109
109
109
110
110
110
111
111
112
112
112
112
113
113
114
115
115
116
116
117
117
118
119
119
120
121
122
123
124
126
127
129
130
132
133
134
135
136
137
138
138
139
139
140
140
139
139
137
135
132
128
124
120
117
113
110
107
104
103
101
100
99
99
98
97
97
98
98
98
98
98
98
98
99
99
99
99
99
100
100
100
100
100
101
101
101
101
101
102
102
102
102
102
102
102
102
102
102
102
103
103
103
103
103
103
103
103
103
103
104
104
104
104
104
104
104
104
104
104
104
104
104
105
105
106
105
106
106
106
107
107
107
107
107
107
106
106
107
106
107
107
108
108
110
111
112
112
112
112
112
111
111
110
109
108
108
109
109
109
109
110
110
110
110
111
111
111
111
111
112
114
114
115
119
128
146
166
189
204
215
212
187
155
135
126
122
119
117
115
114
113
112
112
112
111
111
112
112
112
113
113
113
114
114
115
115
116
116
117
117
118
118
118
119
119
120
120
121
122
123
124
125
126
126
127
128
130
131
132
133
134
136
138
139
140
141
143
144
145
145
146
147
147
147
147
147
146
145
142
140
137
133
129
125
121
118
115
113
110
109
107
106
105
105
105
105
105
105
105
105
105
106
106
106
106
106
106
107
107
107
107
108
108
108
109
109
109
109
109
109
110
110
110
110
111
111
111
111
111
111
111
111
111
111
111
111
111
111
111
111
111
111
111
112
112
112
112
112
112
112
112
112
112
112
112
112
112
112
113
113
113
113
113
113
113
113
113
113
113
114
114
115
117
117
117
117
117
118
118
117
117
116
115
114
114
114
113
113
113
113
113
114
114
114
114
114
114
114
115
116
117
117
120
126
142
162
186
205
219
225
210
178
151
135
128
124
120
118
116
115
114
114
113
113
113
113
113
113
114
114
114
114
115
115
116
116
117
117
117
117
118
119
119
119
120
121
121
122
122
123
123
124
125
126
127
128
130
131
132
133
135
136
138
139
141
142
143
144
145
146
146
147
146
147
147
147
146
144
141
138
135
131
128
124
120
117
114
112
110
109
107
107
107
106
106
106
106
106
106
106
106
106
106
107
107
107
107
107
108
107
108
108
108
109
109
109
109
109
109
109
109
109
109
109
110
110
109
110
110
110
110
110
110
110
110
110
110
110
110
110
110
110
110
110
110
110
111
111
111
111
111
111
111
111
112
111
111
111
112
112
112
113
113
113
113
113
112
113
112
112
113
113
113
114
116
116
117
116
117
117
117
116
115
114
114
113
113
112
112
112
112
112
112
112
112
113
113
113
113
113
114
115
115
116
120
129
146
167
190
208
221
222
200
165
142
130
125
121
118
116
115
113
113
112
112
111
111
111
111
112
112
112
112
112
112
113
113
113
114
114
115
115
115
116
117
117
117
118
119
120
121
121
123
123
124
125
126
126
127
129
130
131
133
134
136
137
139
140
142
143
143
144
145
145
146
146
147
147
146
145
142
140
136
133
129
125
121
117
114
112
109
107
106
105
105
105
104
104
104
104
103
104
104
103
103
104
104
104
104
104
105
105
105
105
105
105
105
105
106
106
106
106
106
106
106
106
106
106
106
106
106
107
107
107
106
106
106
107
107
107
107
107
107
106
106
106
106
106
106
106
106
105
106
106
106
106
106
106
106
106
107
107
107
107
107
107
106
106
106
106
106
107
107
107
109
110
111
111
111
111
111
110
110
109
108
107
107
106
106
106
106
106
106
106
106
106
106
106
107
107
107
108
109
109
110
113
123
141
161
184
200
211
209
187
154
133
122
117
113
111
109
107
106
105
105
104
104
104
104
105
105
105
106
106
106
106
107
107
107
107
108
108
109
109
109
110
111
111
112
112
113
114
114
115
116
117
118
119
120
120
121
123
125
126
127
129
130
131
132
133
134
135
136
137
137
137
137
137
137
135
133
131
127
123
120
116
113
109
109
106
104
102
100
99
98
98
97
97
97
97
97
97
98
98
98
99
99
100
100
100
101
101
101
101
101
101
102
102
103
103
103
103
103
103
103
103
104
104
104
105
105
105
105
106
105
106
106
106
106
106
107
107
108
108
108
108
108
109
109
109
109
109
109
109
109
110
110
110
110
110
110
111
111
111
111
111
111
111
111
111
110
110
111
112
112
114
115
115
115
116
116
116
116
115
114
113
112
112
111
111
111
111
112
112
112
112
112
113
113
113
113
113
114
115
115
117
123
138
157
180
200
214
221
209
178
149
133
126
122
119
117
115
114
113
113
112
112
112
113
112
113
113
113
113
114
114
114
115
115
115
116
116
117
117
118
118
119
119
120
120
121
122
123
123
124
125
126
126
127
129
130
131
133
134
135
136
138
139
141
142
143
144
145
145
146
146
147
147
146
145
143
140
137
134
130
126
123
119
116
113
111
109
107
106
105
105
104
104
104
104
103
104
104
105
105
105
106
106
106
107
107
108
108
108
108
108
108
108
108
108
108
108
109
109
109
109
108
109
109
109
109
109
109
109
109
109
109
109
109
110
109
110
109
110
110
110
110
110
110
111
111
111
111
111
112
112
112
112
112
111
112
111
112
112
112
112
112
112
112
112
112
112
111
112
112
113
113
114
116
116
116
117
117
117
117
117
115
115
114
113
112
112
112
112
112
112
112
112
112
113
113
113
113
114
114
116
115
116
120
130
149
169
193
210
222
219
195
161
139
128
124
120
118
115
114
113
112
112
112
111
111
111
111
112
112
112
112
112
113
113
114
114
115
116
116
117
117
118
118
119
120
120
121
121
122
123
124
125
126
127
128
129
130
131
132
134
135
137
138
140
141
143
144
145
146
146
147
147
147
147
147
146
145
143
140
137
133
129
125
122
119
115
113
110
109
107
107
106
105
105
105
104
105
104
105
105
105
105
106
106
106
106
106
107
107
107
107
108
108
108
107
107
107
108
108
108
109
109
109
109
109
109
110
109
109
110
110
110
110
110
110
110
111
111
111
110
111
111
111
111
111
111
112
112
111
111
111
111
111
111
111
111
111
111
111
112
112
111
111
111
111
111
111
112
112
113
114
115
115
115
115
115
115
115
114
112
111
111
110
110
110
110
110
110
110
110
110
110
110
110
110
111
111
112
113
113
115
120
133
151
173
193
208
218
209
180
149
131
123
118
114
112
110
108
103
100
101
100
98
99
99
98
97
98
99
100
102
104
105
106
107
107
109
109
110
111
112
113
113
114
114
115
115
116
117
118
119
120
121
122
123
124
125
127
128
129
130
131
132
134
135
136
136
136
136
137
138
138
138
137
136
135
133
130
126
122
118
114
111
107
104
101
100
98
97
96
95
95
95
95
94
94
94
95
94
94
95
95
96
96
96
96
96
96
96
96
97
97
98
98
98
98
99
99
100
101
101
101
101
101
101
101
101
101
101
101
101
101
101
101
101
101
102
102
102
102
102
102
102
102
101
101
102
102
103
102
102
102
102
102
102
102
102
103
104
105
106
106
107
107
107
107
107
106
105
103
103
103
103
103
103
104
103
104
104
104
105
105
105
106
106
107
108
109
111
115
125
142
162
183
197
206
199
171
142
125
119
116
114
112
111
110
109
109
109
108
108
108
109
109
109
109
110
110
111
111
111
112
112
113
114
114
114
115
116
116
117
117
119
119
120
121
122
123
124
125
126
127
129
130
131
133
135
136
138
139
139
141
142
143
144
145
146
147
147
147
148
147
147
145
144
141
137
134
130
126
122
118
115
113
111
109
107
106
105
105
105
104
104
104
104
104
104
105
105
105
105
105
105
106
106
107
107
108
108
108
109
109
109
110
110
111
111
111
112
112
111
112
112
112
113
113
112
112
112
112
113
113
112
112
112
112
113
112
112
113
113
113
113
113
113
113
113
113
113
113
114
114
114
114
115
117
117
117
117
118
118
117
117
115
114
114
113
113
113
114
114
114
114
115
115
114
114
114
114
115
115
117
118
119
123
134
152
172
195
211
223
221
197
164
142
131
126
122
119
117
115
114
114
113
113
112
112
112
111
112
112
112
113
113
113
113
113
114
114
114
114
115
115
115
116
117
117
118
118
119
119
120
121
122
123
123
124
126
127
128
129
129
131
132
133
135
135
136
137
138
138
138
139
139
140
139
139
137
136
134
130
127
123
120
116
113
109
107
104
103
101
100
99
99
98
98
98
98
98
98
98
98
98
99
99
99
100
100
100
100
100
101
101
101
101
101
102
101
101
102
101
101
102
102
102
102
102
102
102
102
102
102
103
103
103
103
103
103
104
104
104
104
104
104
104
105
104
104
104
104
104
103
104
104
104
105
106
107
107
107
104
104
103
100
97
97
97
98
94
96
93
95
97
99
100
101
102
102
103
103
103
104
106
108
109
111
118
131
149
169
187
198
204
194
165
138
125
121
117
114
112
111
110
109
107
107
106
107
108
107
108
108
109
109
109
109
110
110
110
111
111
112
113
113
114
114
114
115
116
117
117
117
118
119
120
121
122
123
124
125
126
127
129
130
132
134
135
136
137
138
139
140
140
140
141
141
141
141
140
138
136
134
131
127
124
120
117
114
111
109
107
106
105
104
103
103
103
103
103
103
104
104
104
104
105
105
105
105
106
106
107
107
107
107
108
108
108
108
109
109
110
110
110
110
110
111
111
111
111
111
111
111
112
111
111
112
112
112
112
112
111
112
112
112
112
112
112
111
112
112
112
112
112
113
113
114
116
116
116
117
117
117
117
116
115
114
114
114
113
114
114
114
114
114
114
114
114
114
114
115
115
116
117
118
119
125
137
155
176
197
211
220
210
182
153
136
129
125
122
120
118
117
116
116
115
115
115
115
115
116
116
116
116
117
117
117
118
118
118
118
119
119
119
120
121
121
122
123
123
123
124
125
125
126
127
128
129
130
131
132
134
135
136
138
139
140
141
142
143
144
145
146
147
147
147
148
148
148
147
145
142
140
137
133
130
126
123
120
117
115
113
112
111
110
109
108
108
108
108
108
108
109
109
110
110
109
109
110
110
110
110
111
111
111
111
112
112
112
112
112
112
112
112
112
113
113
113
113
113
113
112
112
113
113
113
113
113
113
113
113
113
114
113
113
113
114
114
114
115
114
114
115
114
114
114
114
114
114
114
115
115
115
116
118
118
118
118
119
119
117
117
116
115
115
115
114
114
114
114
114
114
114
114
114
115
115
115
116
116
117
118
118
120
126
141
160
182
203
217
225
212
180
151
135
128
124
121
119
117
116
115
115
115
114
113
113
113
114
114
114
115
115
116
116
116
116
117
117
117
118
119
120
120
120
120
121
122
122
123
123
124
125
126
127
129
129
131
132
133
135
136
137
139
140
141
142
143
144
145
145
146
146
146
147
147
146
145
143
140
137
133
129
126
122
118
115
113
111
109
108
107
106
106
106
106
106
106
107
107
107
107
107
107
107
107
108
108
108
109
109
109
109
109
109
109
109
109
109
109
109
110
110
110
110
110
110
110
110
110
110
110
110
110
110
110
110
110
110
110
111
111
111
111
111
111
111
111
111
111
111
111
111
112
112
112
111
111
111
111
111
111
111
112
112
112
113
115
115
114
115
115
115
114
114
113
112
112
112
111
111
111
111
111
111
111
112
112
112
112
112
112
113
114
115
115
119
126
144
164
188
207
220
222
201
167
142
129
124
120
117
114
112
111
110
110
109
109
109
110
110
110
110
110
110
111
111
111
111
112
112
112
113
113
114
114
115
115
116
117
117
118
119
120
120
121
122
122
123
124
125
126
128
129
131
132
133
135
136
137
138
138
139
139
140
140
141
141
141
140
138
135
132
129
125
121
117
113
110
107
105
103
101
100
99
99
98
99
99
99
99
99
99
99
99
99
99
99
99
99
100
100
100
100
101
101
101
101
101
101
101
101
101
102
101
102
101
102
101
101
102
101
102
101
102
102
102
101
102
102
102
102
102
102
102
102
101
102
102
102
102
102
103
103
103
102
102
103
103
103
103
103
102
102
102
102
103
104
104
104
105
106
106
106
107
107
106
106
106
105
104
103
103
102
102
102
102
102
103
103
103
103
103
103
103
103
104
105
106
107
109
115
129
148
170
189
202
209
196
165
137
123
117
114
111
109
106
105
105
104
104
104
104
104
104
104
105
105
104
104
105
106
106
107
107
108
108
109
110
111
111
111
111
112
113
114
115
116
117
118
118
120
121
122
123
124
126
128
129
130
132
134
135
136
138
139
139
140
141
142
142
142
142
142
140
138
136
132
128
124
120
117
114
111
108
106
105
103
103
102
101
101
101
101
101
102
102
102
103
103
103
103
103
104
104
104
105
106
106
106
106
106
106
106
107
108
108
108
108
108
109
109
109
109
109
109
109
110
109
109
109
109
109
109
110
110
110
110
110
111
111
111
111
112
112
112
111
112
112
112
112
112
112
112
112
112
112
111
111
112
112
112
112
112
113
114
115
116
116
116
116
116
116
116
115
114
113
112
113
113
112
113
113
113
112
112
112
113
113
113
113
113
113
115
116
116
119
127
143
164
187
205
219
224
208
176
149
134
127
123
120
117
116
114
113
113
113
112
112
112
112
112
112
113
113
113
114
114
115
115
115
115
115
116
116
116
117
118
119
119
120
121
121
122
123
123
124
125
125
127
128
130
131
132
134
135
136
138
139
141
142
143
145
146
146
146
147
148
148
148
147
145
143
140
136
133
129
125
121
118
115
113
111
109
108
107
107
106
106
106
106
106
106
106
107
107
107
107
107
106
106
107
107
107
107
108
108
107
107
108
108
108
108
108
108
108
108
108
109
109
109
108
109
109
109
108
108
108
108
109
109
109
109
110
110
110
110
110
111
111
111
111
111
111
111
111
111
111
111
111
112
111
111
112
111
112
112
112
111
111
111
111
111
111
112
112
112
113
115
116
115
115
115
115
115
114
113
112
111
111
111
111
111
111
111
111
111
111
111
111
112
112
112
112
112
114
114
114
117
124
140
160
183
202
216
222
206
174
147
131
124
120
117
114
112
111
110
109
109
108
108
108
109
109
109
109
110
110
110
110
110
111
112
112
112
112
114
114
114
114
115
115
116
116
117
117
117
118
119
120
121
122
123
125
126
128
130
131
132
133
134
135
137
138
139
140
140
141
141
141
141
140
139
136
134
130
126
126
123
119
114
111
108
105
103
101
100
99
98
98
97
97
97
97
98
98
98
99
99
98
98
99
99
99
99
99
100
100
100
100
100
100
101
101
100
100
101
101
102
102
102
102
103
102
102
102
102
102
102
103
103
102
102
102
103
103
103
103
102
103
103
103
103
103
102
102
103
103
103
103
103
103
104
103
104
104
104
104
105
105
105
105
105
105
105
105
106
106
107
107
107
108
109
109
109
109
109
109
109
108
107
107
106
106
106
106
106
107
107
107
107
107
107
108
108
107
107
108
110
110
111
114
119
134
153
176
196
208
214
199
167
141
127
121
117
115
113
111
110
109
109
109
109
109
110
109
110
110
109
110
111
111
112
112
113
113
113
114
114
115
115
115
116
117
117
118
118
119
121
121
122
123
124
125
126
127
129
130
131
133
134
136
138
138
140
141
142
143
144
145
146
146
146
147
146
144
142
139
136
132
127
124
120
116
114
112
109
107
106
105
104
104
103
103
103
103
103
103
103
103
103
104
104
104
105
105
105
106
105
105
105
106
106
107
107
107
107
108
108
108
108
108
108
108
109
108
109
109
109
109
109
109
109
109
109
109
109
109
109
109
110
110
110
110
110
110
111
111
111
111
111
111
111
111
111
111
111
111
107
107
103
103
103
103
103
105
103
105
105
108
109
110
110
111
111
112
112
112
113
114
115
116
116
116
117
117
117
117
116
115
114
114
113
113
113
113
113
113
113
113
114
114
114
114
114
114
115
117
117
117
119
125
140
160
183
202
217
225
213
183
154
137
129
124
121
118
116
115
114
114
113
113
113
113
113
113
113
113
113
113
114
114
115
116
116
116
116
117
117
117
118
118
119
120
120
121
121
122
123
124
124
125
127
128
129
130
131
133
134
135
136
138
140
142
144
145
145
146
146
147
147
148
148
148
147
145
142
139
136
132
128
124
120
117
114
112
111
110
108
107
107
107
106
106
106
106
107
106
107
107
107
108
108
108
107
108
108
108
109
108
109
109
109
109
109
109
109
109
109
109
110
110
110
110
110
110
111
111
111
111
112
111
111
111
111
110
110
111
111
111
112
112
112
112
112
112
112
112
113
112
112
112
113
112
112
113
113
113
113
113
113
113
113
113
113
113
113
114
114
114
114
115
115
115
114
114
114
114
113
113
114
114
115
116
117
118
117
118
118
118
117
117
117
115
115
114
114
113
113
113
113
113
114
114
115
114
115
115
115
115
116
117
117
118
121
130
147
168
191
208
221
224
205
172
146
133
127
123
120
117
116
114
113
113
112
113
112
113
113
113
113
113
114
114
114
114
114
115
115
115
116
117
117
117
117
118
119
119
120
121
122
122
123
124
124
125
126
128
129
130
131
132
134
135
137
138
139
141
142
143
144
145
146
145
146
147
147
147
146
144
141
138
134
130
126
122
119
115
112
109
108
106
105
104
104
103
103
103
103
104
104
104
104
104
104
104
105
105
105
105
106
106
106
106
106
106
106
106
106
106
106
107
107
107
107
107
107
107
107
107
107
107
107
107
107
107
107
107
108
108
108
108
108
108
108
108
109
108
108
108
109
108
108
108
108
108
108
107
108
108
108
108
108
108
108
108
108
109
109
109
109
109
109
109
109
109
109
109
108
109
109
109
110
111
112
113
112
112
112
112
111
111
110
109
108
108
108
108
108
108
107
107
108
108
108
108
108
108
108
109
109
110
110
111
115
125
143
163
185
201
212
212
189
157
135
135
124
119
116
113
111
110
109
108
107
107
107
107
107
107
107
107
107
107
108
108
108
108
109
109
110
110
110
111
111
112
112
113
113
114
115
116
116
117
117
118
119
120
121
122
123
124
126
127
128
130
131
134
135
137
137
138
139
139
140
140
141
140
140
139
136
133
130
126
122
118
115
111
108
105
103
101
100
99
99
98
98
98
98
98
98
99
99
99
99
99
99
100
100
100
100
101
101
100
100
101
101
101
101
101
102
102
102
103
103
103
103
103
103
103
103
103
103
103
103
103
103
103
104
104
104
104
103
103
103
103
103
104
104
104
105
105
105
105
105
105
106
106
106
106
106
106
106
106
106
107
106
107
107
107
107
107
107
107
108
107
107
108
108
108
108
108
109
109
110
112
112
112
112
113
113
112
112
110
110
109
109
109
109
109
109
109
110
110
110
110
111
111
111
111
112
113
114
115
120
131
149
170
192
206
216
210
183
152
134
126
122
119
117
115
113
112
112
111
111
111
111
111
111
111
111
112
112
113
113
113
114
115
115
115
116
116
117
117
117
118
119
119
120
120
122
122
123
124
125
126
127
128
130
131
133
133
134
135
137
138
140
141
142
143
144
145
146
147
147
147
147
147
146
145
143
140
137
133
129
125
121
118
115
112
110
108
107
106
105
105
105
105
105
105
105
104
105
105
106
105
105
105
105
106
106
106
107
107
107
108
108
108
108
108
108
109
109
109
109
109
109
109
110
110
109
110
110
110
111
111
110
111
112
111
111
111
112
111
111
111
111
111
111
111
112
112
112
112
113
112
112
112
112
112
112
112
112
112
112
112
112
112
112
113
113
114
113
113
113
113
114
114
113
113
113
113
112
113
113
114
114
115
116
117
117
117
117
118
117
117
116
115
114
113
113
113
113
113
114
114
114
114
113
114
114
114
114
115
116
117
117
120
127
143
163
186
205
218
224
209
177
149
134
128
123
119
117
116
114
113
113
112
112
113
113
113
113
113
113
113
113
114
114
114
115
115
115
116
116
117
117
117
118
119
120
120
121
121
122
123
124
125
126
126
128
128
129
130
131
133
134
136
137
138
139
141
142
143
144
145
145
146
146
147
146
146
144
142
139
136
132
128
125
121
118
115
112
110
108
107
106
105
105
105
105
105
105
105
105
106
105
105
106
106
106
106
106
107
107
107
107
108
108
108
108
108
108
108
108
108
108
108
108
109
109
109
109
109
109
109
109
109
110
109
109
109
110
109
110
109
109
110
109
109
110
110
110
110
110
110
110
110
111
111
111
112
112
112
112
112
112
112
112
112
113
113
112
112
112
113
112
113
112
112
113
113
113
113
113
113
114
113
113
113
112
112
113
113
114
115
116
117
117
117
117
117
117
117
117
116
115
115
114
113
113
113
112
113
113
113
113
113
113
113
114
114
114
115
115
115
116
122
134
153
174
197
213
224
219
193
160
140
129
125
121
118
116
114
113
112
112
112
112
112
111
112
112
112
112
112
113
113
113
114
114
115
115
115
115
116
116
117
117
118
118
119
120
121
121
122
122
124
125
125
127
128
129
130
132
133
135
136
138
139
140
141
142
143
144
144
145
145
146
146
146
145
144
141
138
134
131
127
123
119
115
113
110
108
107
106
105
104
104
104
104
104
104
104
104
104
104
104
105
105
105
106
106
106
106
106
106
107
107
107
107
107
107
107
107
107
107
108
108
108
108
108
108
108
108
108
108
108
108
108
108
108
108
108
108
108
108
108
107
107
108
108
108
107
108
108
108
108
108
108
108
108
108
109
109
109
109
109
109
108
109
109
109
109
109
109
109
109
109
109
110
110
111
111
110
110
110
110
110
111
111
113
114
114
115
115
115
114
114
113
113
112
111
110
109
109
108
108
108
108
108
108
108
108
108
108
108
109
109
110
111
111
112
115
123
140
160
183
201
214
217
199
165
140
127
121
118
115
112
111
110
109
108
108
107
107
107
107
107
107
107
107
107
108
108
109
109
109
110
110
111
111
111
112
112
113
114
115
115
116
116
116
118
118
120
120
121
122
124
125
127
128
130
132
133
135
136
137
138
139
140
140
141
141
142
142
142
141
139
137
134
131
126
122
118
115
111
108
106
103
102
100
99
98
98
98
98
98
97
97
98
98
98
98
98
98
98
99
98
99
99
99
99
100
100
100
100
100
101
101
101
101
101
102
102
102
102
102
103
103
103
103
104
103
103
103
103
104
104
104
104
105
105
104
104
105
105
105
106
106
106
106
106
106
106
107
107
107
107
107
108
108
108
108
108
109
109
109
109
110
110
111
111
110
110
110
110
111
111
111
112
113
114
115
116
116
116
116
115
115
115
114
113
113
112
112
112
112
112
112
112
112
112
112
112
112
112
112
112
114
115
115
117
122
135
154
175
196
211
220
211
182
151
133
126
122
119
117
115
113
113
112
112
111
112
112
112
112
112
113
113
113
113
114
114
114
115
116
116
117
117
118
118
119
119
119
120
121
121
122
123
124
125
126
127
128
129
130
132
133
134
136
137
138
140
141
143
144
145
145
146
147
147
148
148
148
147
146
143
141
137
134
129
125
121
118
114
112
109
107
106
105
105
104
103
103
104
103
103
104
104
104
105
105
106
105
105
106
106
106
107
107
107
107
108
108
108
108
108
108
108
108
108
109
109
109
110
109
109
109
109
109
109
109
110
109
109
109
109
109
109
110
109
109
109
109
110
110
110
109
110
110
110
111
111
111
111
110
111
110
111
111
111
111
111
111
111
111
111
111
111
112
112
112
112
112
112
112
112
113
113
114
115
116
116
117
117
117
117
116
115
115
114
113
113
111
111
111
111
111
111
112
112
111
111
111
111
112
112
113
114
114
115
118
128
147
168
192
209
221
221
200
165
141
129
129
124
120
118
115
113
111
111
111
111
110
111
110
110
110
110
111
111
111
112
113
113
113
113
114
115
115
116
116
117
117
118
118
119
120
120
121
121
122
123
124
125
126
128
129
131
132
133
135
136
138
139
140
142
143
144
145
145
146
146
146
147
147
145
143
141
138
134
130
126
122
119
115
112
110
108
106
105
104
104
103
103
103
102
102
102
102
103
103
103
104
104
104
104
104
105
105
105
105
105
106
105
106
106
106
106
106
106
106
107
107
106
107
106
106
106
106
106
106
107
107
107
107
106
107
107
107
107
107
107
107
107
107
107
107
107
107
107
107
107
107
107
107
107
107
107
107
108
108
108
108
107
108
108
108
108
108
108
108
108
107
107
107
108
108
109
110
111
111
112
112
112
112
112
111
110
110
109
108
107
106
106
106
106
106
106
106
106
106
106
106
106
106
106
106
107
107
108
112
119
136
155
179
196
209
213
195
162
136
123
117
113
110
108
107
105
104
104
104
104
104
104
104
104
105
105
105
104
105
105
105
106
106
107
107
107
108
109
109
110
110
111
111
112
113
114
114
116
117
118
118
119
120
122
123
125
125
126
128
130
131
133
133
134
136
137
138
139
139
139
140
140
139
138
137
135
132
129
124
120
116
113
109
106
103
101
100
98
97
97
97
97
97
97
96
97
97
97
98
98
98
98
98
99
99
99
99
100
100
100
100
101
101
101
101
102
101
102
102
103
103
103
103
103
104
104
104
104
104
104
104
104
104
104
104
105
105
105
106
106
106
106
107
106
107
107
107
107
107
108
108
108
108
108
108
109
109
110
110
110
109
110
110
110
111
110
110
110
110
110
110
111
112
113
114
115
116
115
116
116
116
115
115
115
113
113
112
111
111
111
111
112
111
111
112
112
112
113
113
113
113
113
114
116
116
118
123
137
155
178
198
213
222
212
182
152
136
128
124
121
119
117
114
114
113
113
113
113
113
113
113
113
113
113
114
114
115
115
116
117
117
117
117
118
119
119
120
120
121
121
122
123
124
124
125
126
126
127
129
130
132
133
135
136
137
139
140
142
144
145
146
147
148
149
149
150
150
151
150
150
149
146
143
139
135
131
127
123
119
116
114
111
110
109
108
108
107
107
106
106
107
107
106
106
106
107
107
107
108
108
108
108
108
108
107
108
108
108
108
108
109
109
109
110
110
110
110
111
111
111
110
110
110
110
110
110
110
110
110
110
110
110
110
110
111
110
111
111
111
110
110
111
111
111
111
111
111
111
111
111
111
112
111
112
112
112
112
112
112
112
112
111
111
112
112
112
112
112
112
112
112
113
113
114
115
115
116
116
116
116
116
116
115
115
115
114
113
113
112
112
112
112
112
111
111
111
112
112
112
112
112
112
113
114
115
116
117
123
136
156
179
200
215
226
217
189
157
137
128
123
120
117
115
114
112
112
111
111
110
111
111
111
111
111
112
112
113
113
113
113
114
114
114
115
116
116
116
117
117
118
119
119
120
121
121
122
124
124
125
127
128
128
129
131
132
134
135
137
138
140
141
142
143
144
145
145
146
146
146
146
146
145
143
141
137
133
129
125
122
118
115
112
110
107
106
105
104
103
103
103
103
103
103
103
102
103
103
103
103
103
104
104
104
104
104
104
104
105
105
105
105
105
105
105
105
105
106
106
106
106
106
106
107
106
107
107
107
107
106
106
106
106
106
106
106
106
106
106
106
106
106
106
106
106
106
106
107
107
107
107
107
107
107
107
107
107
107
107
107
107
107
108
108
107
108
107
107
107
106
106
106
107
108
110
111
111
111
111
111
111
111
110
109
109
109
108
108
107
106
106
106
106
106
105
105
105
105
105
105
105
105
105
106
107
108
109
112
118
134
153
177
196
208
213
198
166
139
125
119
115
113
110
108
107
106
105
105
105
105
105
105
105
105
105
105
106
106
106
106
107
108
109
109
109
109
110
110
111
112
112
112
113
114
114
115
116
116
117
118
120
121
122
123
125
127
129
130
132
133
134
136
137
138
139
139
139
140
140
141
141
140
138
137
134
129
125
122
118
114
110
107
105
102
100
99
98
98
97
97
97
97
97
97
97
98
98
99
99
99
99
99
100
99
100
100
100
100
101
102
102
102
102
102
102
103
103
103
103
103
104
104
104
104
104
105
105
105
105
105
106
106
106
106
106
106
106
106
106
106
106
107
107
107
108
108
108
108
108
108
108
109
109
109
110
109
109
109
109
110
110
110
111
111
111
110
111
111
112
113
114
115
116
116
116
116
116
116
115
115
115
114
113
113
112
112
112
112
112
112
112
113
113
113
113
113
113
114
114
114
115
116
116
117
121
130
149
169
192
208
219
218
196
163
141
130
125
121
119
117
115
114
114
113
112
112
112
112
112
113
113
113
113
113
114
114
115
116
116
116
117
117
118
118
119
120
120
121
121
122
122
123
124
124
125
126
128
128
130
132
133
135
136
138
140
141
142
144
145
146
147
148
149
149
149
150
150
150
149
147
144
141
137
133
129
125
121
118
115
113
110
109
107
106
106
106
106
106
105
105
105
105
105
105
105
106
106
106
106
106
107
107
107
108
108
108
108
109
109
109
109
109
109
109
110
109
110
110
110
109
109
109
109
109
109
110
110
110
110
111
111
111
111
111
111
111
111
111
111
111
111
111
111
111
112
112
112
112
112
112
112
112
111
111
111
112
112
112
112
112
112
112
113
113
113
112
112
112
113
113
115
116
117
117
118
118
118
118
117
116
116
115
114
113
113
112
111
111
111
111
110
111
110
111
110
111
111
111
111
112
113
113
114
117
125
143
164
187
205
218
222
203
170
144
129
123
118
116
114
112
110
109
108
108
108
108
108
107
108
108
109
108
108
108
109
109
109
110
110
109
110
110
110
111
111
112
112
112
112
113
114
116
117
117
118
118
118
119
121
123
125
127
127
127
127
126
127
130
133
135
134
133
134
138
141
141
141
141
139
137
134
131
128
122
117
112
108
106
103
99
97
96
95
96
98
99
99
99
98
98
97
97
97
97
96
96
96
96
96
96
96
96
97
97
96
95
94
97
98
99
100
100
100
99
98
98
98
99
100
101
101
100
98
97
99
101
100
97
95
96
100
102
101
101
104
106
107
106
104
104
104
104
104
104
103
104
103
103
103
102
102
103
105
105
105
104
104
104
104
105
107
108
108
108
108
107
107
105
103
103
102
102
102
103
103
103
103
102
103
103
103
103
104
103
104
106
107
108
112
119
134
151
172
187
197
199
180
147
127
118
116
113
111
109
108
108
108
108
108
108
108
109
109
110
111
111
111
111
111
111
112
112
112
113
113
113
114
114
115
115
116
117
118
119
119
120
121
122
123
123
125
126
128
129
131
133
135
136
138
140
141
143
144
145
146
147
148
148
149
150
149
149
148
146
142
139
135
130
125
121
116
113
110
108
106
104
103
102
102
101
101
100
100
100
100
100
101
101
101
101
101
101
101
101
102
102
103
103
103
103
103
104
103
104
104
105
105
105
105
106
106
106
107
107
107
107
107
107
107
107
107
107
107
107
107
107
107
107
107
107
107
107
106
107
107
107
107
107
108
108
108
108
108
108
108
109
109
109
109
110
111
112
114
114
114
114
114
114
113
112
111
110
110
110
110
110
110
110
110
110
109
110
110
110
110
110
110
112
113
114
116
121
132
152
173
196
211
221
216
190
157
136
126
122
118
115
114
112
111
111
110
110
110
110
110
111
111
111
111
111
112
113
113
114
115
116
116
117
117
118
118
119
119
119
119
120
121
122
123
124
125
125
126
127
128
130
131
133
134
136
137
139
140
142
144
145
146
147
148
148
149
149
149
149
149
147
145
143
139
135
131
127
123
120
117
114
112
110
109
108
107
107
107
106
106
106
106
106
106
106
107
107
107
108
108
108
108
109
109
109
109
109
110
110
110
110
110
110
110
110
110
111
111
111
111
111
112
112
112
112
112
113
112
113
113
113
113
113
113
113
114
114
114
114
115
114
115
115
115
115
115
115
115
115
115
114
114
114
114
114
115
115
115
115
116
118
119
119
118
119
119
118
118
117
116
115
115
115
115
114
114
114
114
114
114
115
115
115
115
115
115
116
117
116
117
121
131
150
171
195
213
225
224
200
166
142
130
124
121
118
116
114
112
112
111
111
111
111
112
112
111
111
112
112
112
112
112
112
113
113
113
114
114
115
115
115
115
116
117
117
118
118
119
120
121
122
123
124
125
126
127
128
130
131
133
135
136
137
138
140
141
141
142
143
143
144
144
144
143
141
139
136
133
129
125
120
116
112
108
105
103
101
100
99
98
97
97
97
96
96
96
96
97
97
97
96
97
97
98
98
98
98
98
98
99
99
99
99
99
100
99
99
99
100
100
100
100
99
100
100
100
100
100
100
100
101
101
101
101
101
101
101
101
101
100
101
101
101
101
102
102
102
102
101
101
101
101
101
101
102
102
103
105
105
105
105
105
106
105
104
103
102
102
102
102
102
102
102
102
101
102
102
102
103
103
103
104
104
105
106
107
108
112
124
143
163
185
198
208
203
178
147
127
119
115
112
110
108
107
106
105
104
104
105
105
105
106
106
107
107
108
108
109
110
110
111
111
112
112
112
113
113
114
115
115
115
116
117
117
118
119
119
120
121
122
123
125
127
128
130
131
133
135
136
138
140
141
142
143
143
144
145
146
146
146
146
145
144
142
138
134
131
126
122
118
114
111
109
107
105
104
103
102
102
101
101
102
101
102
102
103
103
103
103
103
103
104
104
104
104
105
104
104
105
105
105
105
106
105
106
106
106
107
107
106
107
107
107
107
108
108
109
109
108
108
108
108
109
108
109
109
109
109
109
110
110
109
109
109
109
109
109
110
110
110
111
110
110
110
110
110
110
110
111
111
112
113
113
113
114
114
113
113
112
111
110
110
110
110
110
110
110
110
110
110
110
111
111
111
111
111
112
113
114
114
116
122
137
157
180
201
215
224
214
186
155
136
126
121
118
115
114
112
111
110
110
110
109
109
110
110
110
110
110
111
111
112
112
112
113
113
113
114
114
115
116
117
117
117
118
119
119
120
121
122
123
124
125
126
127
129
130
131
133
135
136
138
139
141
142
144
145
146
147
147
148
149
149
149
148
147
144
141
137
133
129
125
121
118
115
111
109
108
107
106
105
104
105
105
105
105
105
105
105
106
106
106
106
106
107
107
107
107
107
107
107
108
108
109
109
109
109
109
109
109
109
110
110
110
109
109
109
109
109
109
110
110
109
109
109
110
110
109
109
110
110
110
110
110
110
110
110
110
110
111
111
111
111
111
110
111
111
111
111
111
110
110
110
110
110
110
110
110
110
110
111
112
112
112
113
113
113
113
113
111
110
110
109
109
109
109
109
109
109
109
109
109
109
109
109
109
109
110
111
111
112
116
125
144
164
186
202
212
214
194
161
137
124
119
115
112
110
108
107
107
106
106
105
105
105
105
105
105
105
106
106
106
106
106
106
107
107
108
108
109
109
110
110
111
111
111
112
113
113
115
116
117
117
118
119
120
122
123
124
126
127
129
131
132
133
135
136
137
138
138
139
140
140
140
140
139
137
134
131
127
123
118
114
110
106
104
102
100
99
97
96
95
95
94
94
95
95
96
96
97
97
97
96
97
97
98
98
99
98
99
99
98
99
99
99
98
98
98
99
99
100
100
100
100
100
100
100
100
100
101
101
101
101
101
101
102
102
102
102
102
102
102
103
103
103
103
103
103
103
103
104
104
104
104
104
104
104
105
105
105
104
104
104
104
105
105
105
106
107
108
109
109
109
110
110
110
110
109
108
107
107
107
106
107
107
107
107
107
107
108
108
108
109
108
108
109
110
112
112
113
119
131
149
171
192
204
213
207
179
149
131
123
119
116
114
112
111
110
110
110
109
109
108
108
108
109
110
110
111
111
112
112
112
112
113
113
114
114
115
115
116
116
117
118
118
119
119
120
121
122
123
124
125
127
128
129
131
132
134
135
137
139
141
142
143
144
145
145
146
147
147
147
147
146
144
142
139
135
131
127
123
119
116
113
110
108
106
105
104
104
104
103
103
103
103
103
103
103
103
103
103
103
103
104
104
104
105
105
105
105
105
106
106
106
106
107
107
107
107
108
108
108
108
108
108
108
108
108
108
109
109
109
109
109
108
109
109
109
108
109
109
109
109
109
110
110
110
110
110
110
111
111
111
111
111
111
111
111
112
111
111
111
111
111
111
111
111
111
111
111
111
111
112
112
113
114
114
114
114
115
115
115
115
114
113
112
112
112
112
112
112
112
112
112
112
112
112
113
113
113
113
113
114
115
116
118
123
136
156
179
200
214
214
224
216
188
157
138
129
124
121
117
116
114
114
113
112
112
111
111
112
112
112
113
113
113
113
114
114
114
115
116
116
116
117
117
118
118
119
119
120
121
121
122
123
124
125
125
127
127
129
130
131
133
134
135
137
139
141
142
144
145
146
147
148
149
149
150
151
151
150
149
147
144
140
137
132
128
124
121
117
115
112
110
109
107
107
106
106
106
106
106
106
106
105
106
107
107
107
107
108
108
108
108
108
109
109
109
110
110
110
110
111
110
110
111
111
111
110
111
111
111
111
110
111
111
111
111
110
111
111
111
111
112
112
112
112
111
112
111
112
112
112
112
112
112
112
112
112
112
113
113
113
113
113
113
113
113
113
113
113
113
114
114
114
114
114
114
114
114
114
114
115
115
116
117
118
118
118
119
119
119
118
117
116
116
115
115
115
115
115
114
114
114
115
115
115
115
116
116
116
116
118
118
118
121
128
145
166
190
209
223
228
212
179
151
135
129
124
121
119
117
116
115
114
113
113
113
113
113
113
114
114
115
115
115
115
115
116
116
116
117
118
118
118
119
119
120
121
121
122
122
123
124
125
126
127
128
128
129
130
131
133
134
135
137
139
140
141
143
145
146
147
147
148
149
150
150
151
150
150
148
146
143
139
134
130
125
121
117
114
111
108
106
105
104
103
102
102
102
102
102
102
102
102
102
103
103
103
103
103
103
103
103
103
103
103
104
104
104
104
104
104
105
105
105
105
104
104
104
105
105
105
105
105
105
105
105
105
105
105
105
105
105
105
105
105
105
105
105
105
105
105
106
105
105
105
105
105
106
106
106
106
106
106
106
106
106
106
106
106
107
107
106
106
105
105
105
105
106
106
106
108
110
110
110
110
111
110
110
109
108
107
107
106
106
106
106
106
105
106
106
106
106
106
106
106
106
107
108
109
110
111
115
125
143
164
187
202
212
209
186
153
132
123
118
114
112
110
108
108
107
107
106
106
106
106
107
107
107
107
108
108
108
108
109
110
110
110
111
111
112
112
112
113
113
114
115
115
116
117
118
119
120
121
122
123
125
126
127
129
131
133
134
136
138
140
141
142
144
144
145
145
146
146
147
146
145
144
141
138
134
130
125
121
117
113
111
108
106
104
103
102
102
102
101
102
102
102
102
102
102
102
102
102
103
102
103
103
103
104
104
104
104
105
105
105
106
106
106
106
106
106
107
108
108
108
108
108
108
108
108
108
109
109
109
109
109
109
109
109
109
110
110
110
111
111
111
111
111
110
110
110
111
110
111
111
111
111
112
112
112
112
112
113
113
113
113
113
114
114
114
113
113
113
113
113
113
114
114
115
115
116
117
117
117
117
117
117
117
116
114
114
113
113
112
113
113
113
113
114
114
114
114
114
115
115
115
116
118
118
118
122
131
149
169
192
210
223
226
208
176
149
135
128
123
120
118
117
115
114
114
113
113
113
113
113
114
114
114
114
114
115
115
115
116
116
117
118
118
118
119
119
120
120
121
121
122
123
124
124
125
126
127
128
128
129
130
132
133
134
136
138
140
141
143
145
146
147
148
149
150
150
150
150
151
150
149
147
145
141
137
133
129
125
121
118
115
112
111
109
108
107
107
107
107
107
107
107
107
107
107
107
107
108
107
108
108
109
109
108
108
108
109
109
109
109
109
109
109
109
109
110
110
110
110
110
110
111
111
111
110
110
110
110
111
111
111
111
111
111
111
112
112
112
111
112
111
111
111
111
111
111
112
112
112
112
112
112
112
112
112
113
113
113
113
113
113
113
114
114
114
114
113
113
113
113
113
114
114
114
115
117
117
117
117
117
117
117
117
116
115
114
113
113
113
113
113
114
114
114
113
113
113
113
114
114
114
115
116
116
117
122
132
152
173
197
213
225
223
199
164
142
130
125
120
117
115
113
113
112
111
111
110
110
111
110
111
111
111
111
112
112
112
112
113
113
114
114
114
115
115
116
116
116
116
117
118
119
120
120
121
121
122
123
124
125
126
127
129
130
132
134
135
136
138
139
140
141
142
142
143
143
144
144
144
143
141
139
136
133
129
124
119
115
111
109
106
104
102
101
100
99
99
98
98
98
98
98
98
98
98
98
98
98
98
98
99
99
99
100
100
100
101
101
101
101
101
101
101
101
101
101
101
100
100
101
101
101
101
101
101
101
101
101
101
101
101
102
102
102
102
102
102
102
103
103
103
103
103
103
103
103
103
103
103
103
103
103
103
103
104
104
104
105
106
105
104
104
104
104
104
104
105
105
106
107
108
109
109
109
110
109
109
108
107
106
106
105
105
105
105
105
105
105
105
105
106
106
107
107
107
107
107
109
110
110
113
118
134
153
176
195
207
214
200
168
141
126
121
117
115
113
111
110
109
109
109
108
108
108
108
108
109
109
109
109
110
110
110
111
111
112
113
113
113
114
114
116
116
117
117
118
119
119
120
121
122
123
124
125
126
127
129
130
132
134
135
137
138
140
142
143
145
145
146
147
148
148
149
149
148
147
146
143
139
135
130
126
122
118
115
112
110
107
106
105
105
104
104
103
103
103
103
103
104
104
104
104
104
105
105
105
105
106
106
106
107
107
107
107
107
107
108
108
108
108
108
108
109
109
110
110
110
110
110
110
110
110
110
110
110
110
110
110
110
111
111
110
111
111
111
111
111
111
112
111
112
112
112
112
112
112
112
112
112
112
113
113
113
112
112
112
112
112
112
112
113
113
114
115
117
116
116
117
117
116
116
115
114
114
113
113
113
113
113
113
113
112
112
112
113
113
113
114
114
115
116
116
117
120
130
147
168
191
209
222
226
207
173
147
133
127
123
120
117
115
114
113
113
113
113
112
112
112
112
112
112
113
113
113
113
113
114
115
115
116
116
117
117
117
117
117
118
119
119
120
121
122
122
123
125
126
126
127
128
130
131
133
134
136
137
138
139
141
142
143
144
146
147
147
148
148
149
149
148
146
144
141
138
134
129
125
121
118
115
112
110
108
107
106
105
104
104
104
104
104
104
105
105
105
105
105
105
106
106
106
106
106
107
107
107
107
107
108
108
108
108
108
108
108
108
108
109
108
108
108
108
109
109
109
109
109
109
109
110
110
110
110
110
110
110
110
110
110
110
110
111
111
111
111
111
111
111
111
111
111
111
111
111
111
111
112
112
112
112
111
111
111
112
111
112
113
114
115
116
116
116
116
116
116
115
114
113
112
112
112
112
112
111
111
111
112
112
112
112
112
112
112
113
114
114
115
117
122
136
156
179
201
216
225
216
185
154
134
126
122
118
115
113
111
111
110
109
109
109
108
108
108
108
108
108
109
109
109
110
110
111
112
111
112
113
113
113
114
115
115
115
116
116
116
117
118
120
120
121
122
123
124
124
126
127
129
130
132
133
135
136
137
138
139
140
141
141
141
141
141
141
141
139
137
133
129
125
121
117
113
110
107
104
102
100
100
98
98
97
97
97
97
97
97
97
97
97
97
97
98
98
98
99
99
99
99
99
100
99
100
100
100
100
100
101
95
96
93
94
92
92
92
93
96
93
96
98
99
100
100
100
101
101
101
101
102
102
102
102
102
102
102
103
103
103
103
103
104
104
105
104
104
104
104
105
105
104
105
105
106
108
108
108
108
109
109
109
108
107
107
106
106
106
106
106
106
105
105
105
106
105
106
106
106
106
106
107
109
109
110
114
124
142
163
185
200
210
206
180
148
129
121
117
114
112
110
109
109
108
107
107
107
107
107
107
107
108
108
109
109
109
109
110
111
111
112
112
112
113
114
114
115
115
116
116
117
119
120
121
121
122
123
124
125
126
128
129
131
133
134
136
137
139
140
141
143
144
145
146
146
146
147
147
147
145
144
141
137
133
129
125
121
117
114
110
108
106
105
104
103
103
102
102
102
102
102
103
103
103
104
103
103
104
104
104
104
105
105
105
106
106
106
106
107
107
107
107
107
108
108
108
108
108
109
109
109
109
109
110
109
109
109
109
110
110
110
110
110
110
110
110
110
111
111
111
111
111
111
112
111
111
111
111
112
111
111
111
111
111
111
110
111
111
111
112
113
114
116
116
116
116
116
116
116
115
113
113
112
112
112
112
112
112
112
112
112
112
112
112
113
113
114
115
116
116
117
121
131
149
170
194
210
223
223
201
167
143
131
125
122
119
116
114
113
112
112
112
112
112
112
112
113
113
113
113
114
114
114
114
115
115
116
116
117
117
117
117
118
119
119
120
121
122
122
122
123
124
125
126
127
128
129
130
132
133
135
136
138
139
140
142
143
144
145
145
146
146
147
147
147
146
145
143
140
136
132
128
123
120
117
114
111
109
108
106
105
105
105
105
105
104
105
105
105
105
105
106
106
106
106
106
107
106
106
106
106
107
107
107
107
107
107
107
108
108
108
108
108
108
109
109
109
109
109
109
109
109
109
109
109
108
109
109
110
110
110
110
110
110
110
110
110
110
110
110
110
110
110
111
111
111
111
110
111
111
110
111
111
112
111
111
112
112
111
112
112
113
114
115
116
116
116
116
116
115
114
113
112
112
111
111
111
111
111
111
111
111
111
111
111
111
112
112
112
113
114
114
116
121
133
153
175
198
214
225
220
194
160
139
129
123
119
117
117
115
113
111
111
110
110
110
110
110
110
110
111
111
112
112
112
112
113
113
114
114
115
115
112
111
108
109
111
112
112
110
111
114
116
119
120
122
123
125
126
128
130
131
133
135
136
138
139
141
142
144
144
146
146
147
148
148
149
148
147
146
143
140
136
132
127
123
120
116
113
110
108
107
106
105
104
103
103
103
103
103
104
104
104
104
104
104
103
104
104
104
104
104
105
104
104
104
104
105
105
105
105
105
105
105
105
105
105
105
105
105
105
105
105
105
105
105
105
105
105
105
104
104
104
105
105
105
105
105
105
105
104
104
104
104
105
104
105
105
105
106
105
106
106
106
105
104
104
105
105
105
105
106
107
108
109
109
109
108
109
109
109
108
107
106
106
105
105
104
104
104
104
104
105
105
105
105
105
106
106
106
108
108
109
112
118
132
152
175
194
207
213
198
165
138
123
118
115
112
110
107
106
105
105
104
104
105
105
104
105
104
105
105
105
106
106
106
107
107
108
108
108
109
109
110
111
111
112
112
113
114
114
115
116
117
118
119
120
121
123
124
125
127
129
131
133
134
135
136
138
139
140
141
142
142
142
142
143
143
142
141
139
136
133
129
125
120
117
113
109
107
105
103
101
100
100
99
99
99
99
99
99
99
100
99
99
100
100
101
101
101
101
101
102
102
103
103
103
103
103
103
104
104
104
105
105
105
106
106
106
106
106
106
106
107
107
107
107
107
107
107
107
107
107
107
108
108
108
108
108
109
109
109
109
109
109
109
109
110
110
110
110
110
110
110
110
110
111
112
112
112
113
115
114
115
115
115
115
115
114
113
112
111
111
111
111
111
111
111
112
111
111
112
112
112
113
113
113
115
116
116
119
126
143
163
186
205
218
223
206
173
146
132
125
121
119
117
115
114
113
112
112
112
112
112
111
112
112
113
113
114
114
114
115
115
116
116
117
117
117
118
118
119
119
120
120
121
122
122
123
124
125
126
127
128
129
130
132
133
134
136
138
139
140
142
143
145
146
147
147
148
149
149
149
149
148
147
145
141
138
134
130
126
122
118
115
112
110
109
107
106
105
105
105
105
105
104
104
105
105
105
105
106
106
106
107
107
107
108
108
108
108
109
108
109
108
109
109
109
109
109
110
109
110
110
110
110
110
110
110
110
110
110
110
110
111
111
111
111
111
111
111
111
111
111
111
111
111
112
112
112
112
112
112
112
112
112
112
113
113
113
112
112
112
112
112
113
113
113
115
116
116
116
116
117
116
116
115
114
113
112
112
112
112
112
112
112
112
112
113
113
113
113
113
113
114
116
116
117
119
124
139
158
182
204
220
229
218
188
156
138
129
124
121
118
116
115
114
113
112
112
112
112
113
113
113
113
114
113
113
114
114
115
115
116
116
116
117
118
118
118
119
119
120
120
121
121
121
122
122
123
124
125
126
128
129
130
131
133
135
136
138
139
140
141
142
143
143
144
145
145
145
145
144
143
141
139
135
131
126
122
118
114
111
108
106
104
102
101
101
100
100
100
100
100
100
100
100
100
100
100
100
100
100
100
100
101
101
101
101
101
101
101
101
102
102
101
102
102
102
102
102
102
102
102
102
102
102
102
102
103
103
103
103
103
102
102
102
102
102
102
102
103
103
103
103
103
104
103
103
103
103
103
102
102
102
102
102
102
103
104
104
105
106
106
106
105
106
105
105
104
103
102
102
103
103
103
103
104
103
103
103
103
104
104
105
105
105
105
105
106
107
108
110
116
131
150
172
192
203
208
194
162
136
122
117
114
111
108
106
106
105
105
104
104
104
104
104
105
105
105
105
106
106
106
107
107
108
109
109
109
110
111
112
112
113
113
114
115
116
117
117
118
119
120
121
122
124
126
127
128
130
132
133
135
137
138
140
141
142
143
144
144
145
146
147
147
146
145
142
139
135
131
127
123
119
115
112
110
107
106
105
104
103
103
103
102
102
101
102
102
102
102
102
103
103
103
104
104
105
105
105
106
106
106
107
107
108
108
108
108
108
108
109
108
109
109
109
109
110
110
110
110
111
111
111
111
111
111
111
111
111
112
112
111
111
111
112
112
112
112
112
112
112
112
112
111
112
112
112
112
112
113
114
115
116
117
116
117
117
117
116
115
115
114
113
113
113
113
113
114
114
114
114
114
114
114
113
114
114
115
117
117
118
121
130
148
169
192
210
223
226
206
171
146
133
127
123
120
118
116
115
114
114
113
113
114
113
113
113
113
113
114
115
115
115
116
116
116
117
117
117
118
119
119
120
121
121
122
123
124
124
125
126
128
129
129
130
132
133
134
135
137
137
139
140
142
144
145
146
148
148
149
150
150
151
151
152
152
151
149
146
143
139
135
130
126
122
119
116
114
112
110
109
108
107
107
107
107
107
107
107
107
107
107
107
107
107
108
108
108
108
108
109
109
109
109
109
109
109
110
110
110
110
110
110
111
109
110
110
111
111
110
110
111
111
111
111
111
111
112
111
111
112
112
112
112
112
112
112
112
112
112
112
112
112
113
112
112
112
112
112
112
112
112
113
114
115
116
117
116
117
117
117
117
116
115
114
113
113
113
113
113
113
113
113
113
113
113
113
113
113
113
113
114
115
115
116
121
134
153
176
199
215
226
216
186
154
135
126
122
118
116
114
112
111
110
109
109
109
109
108
108
109
109
109
110
110
110
110
110
110
110
111
111
112
112
113
113
114
114
115
115
116
117
117
118
120
121
121
122
123
124
125
126
128
129
131
132
134
135
137
138
139
139
140
141
141
142
143
143
142
140
138
135
131
127
123
118
114
110
107
104
102
100
99
97
97
96
96
96
96
96
96
96
96
95
96
96
96
96
96
96
96
97
97
97
98
98
98
98
98
98
98
98
99
99
99
99
99
99
99
99
99
99
99
99
100
100
100
100
100
100
100
100
100
100
100
100
99
99
100
100
101
101
101
101
100
100
100
101
101
101
102
103
104
104
104
104
104
104
103
103
102
101
101
101
101
101
101
101
102
102
101
102
101
102
102
102
102
103
104
105
106
107
111
123
141
162
183
197
206
199
171
141
123
116
113
111
108
107
106
105
105
104
104
104
104
104
104
105
105
106
106
107
107
108
108
109
109
109
110
111
111
112
113
114
114
115
115
116
116
117
118
120
121
122
123
125
126
128
129
131
133
135
136
138
140
141
142
143
144
145
146
146
147
147
147
146
144
142
139
136
132
127
122
118
114
112
109
107
105
104
104
103
103
102
102
102
102
102
102
102
102
103
103
103
103
103
104
103
103
104
104
105
105
105
106
106
106
106
107
107
107
107
107
108
108
108
108
108
108
109
109
108
108
108
109
109
109
109
109
109
109
109
109
109
109
109
109
110
110
110
109
110
110
110
110
110
111
112
113
114
115
114
114
114
115
115
115
114
113
112
112
111
111
111
111
111
111
111
111
111
112
112
112
112
112
113
114
115
115
117
124
139
139
159
182
203
218
227
216
188
157
138
129
124
120
117
115
114
113
113
112
111
111
112
112
112
112
112
113
113
113
113
113
114
114
115
115
115
116
117
118
118
118
119
119
120
120
121
122
123
124
124
125
126
128
129
130
132
134
135
137
138
140
142
143
144
145
146
147
148
149
149
150
150
149
147
145
142
138
134
130
126
122
118
115
113
111
109
108
107
106
105
105
105
105
106
106
106
106
106
107
107
107
107
107
107
108
108
108
109
109
109
109
108
108
109
109
109
109
110
110
110
110
110
110
110
110
111
111
110
111
111
111
111
111
111
111
111
111
112
112
112
112
112
112
112
113
113
113
113
112
113
113
113
113
113
112
113
113
114
114
114
114
115
116
117
118
117
118
118
117
117
116
115
114
114
113
113
113
113
113
113
113
113
113
113
113
113
113
114
114
115
116
116
117
119
125
142
163
187
207
222
229
213
179
150
134
126
122
118
116
114
112
111
110
110
110
109
109
109
109
109
110
110
111
111
111
110
110
111
111
112
112
113
113
113
114
114
115
115
116
116
116
116
117
118
120
121
122
124
125
126
127
129
130
132
133
135
135
136
137
138
139
140
141
141
141
142
142
142
141
140
138
135
131
127
122
118
113
110
107
104
101
100
99
97
97
96
96
96
96
96
96
96
96
96
96
96
96
96
97
97
97
97
97
97
97
97
97
98
98
98
98
98
98
98
98
98
98
98
98
97
97
97
98
98
99
99
99
99
99
99
99
98
99
99
99
100
100
100
99
99
99
99
100
100
100
99
99
99
100
100
100
101
101
103
104
105
105
105
105
105
105
104
103
102
102
102
102
102
102
102
102
102
102
102
102
102
102
102
102
103
104
105
106
106
108
113
127
145
167
187
199
206
194
162
136
122
117
114
112
110
108
107
106
106
106
105
106
106
106
106
107
107
107
107
107
108
109
109
110
110
111
112
112
112
113
114
114
115
115
116
117
118
119
120
122
123
124
125
126
128
129
130
132
134
135
137
139
140
142
144
145
146
146
147
148
148
148
148
148
146
143
140
136
132
128
123
119
116
113
109
108
106
104
104
103
103
103
102
102
102
102
103
103
103
104
104
104
104
105
105
105
106
106
106
106
107
107
108
108
108
108
108
108
108
109
109
109
109
109
110
110
110
110
110
110
110
110
111
111
111
110
110
111
111
110
110
110
110
111
111
111
111
111
112
112
112
112
111
112
112
112
112
113
113
114
115
116
115
116
116
116
116
116
115
114
113
113
113
113
113
113
113
112
112
112
113
113
113
113
113
113
113
114
116
116
118
123
136
155
177
199
214
226
221
196
163
141
130
125
121
119
117
115
114
113
113
112
112
112
112
112
112
113
114
113
113
114
114
115
115
116
116
116
117
117
117
118
119
120
121
121
122
123
123
124
124
125
126
126
128
129
130
132
134
135
136
138
140
141
143
145
146
147
147
148
149
149
149
149
149
148
146
143
140
136
132
128
124
120
117
114
112
110
108
108
107
107
106
106
106
106
107
107
107
107
107
107
107
108
108
108
109
109
109
109
109
109
109
110
110
110
110
110
110
111
111
111
111
110
110
111
110
110
110
110
110
111
111
111
111
111
111
111
111
111
111
111
112
112
112
113
113
113
113
113
113
113
113
112
112
112
112
112
112
113
113
114
115
116
116
116
116
116
116
116
115
114
113
113
113
113
113
113
113
113
113
113
113
113
113
113
113
114
114
115
116
116
117
117
121
132
151
172
196
213
225
224
201
167
143
132
126
122
119
117
115
114
113
113
112
112
112
112
113
113
113
113
114
114
114
115
115
115
116
116
116
117
117
117
118
118
118
119
120
120
121
122
122
123
124
125
126
128
129
130
131
132
134
135
137
139
140
141
142
143
144
145
145
146
146
147
147
147
146
143
140
137
133
129
124
120
116
113
110
107
105
104
103
102
101
100
100
100
100
100
100
100
100
100
100
100
100
100
100
100
100
100
100
100
100
100
101
100
100
100
101
101
101
101
101
101
100
101
101
102
101
101
101
101
101
101
102
101
101
101
101
101
101
101
101
101
101
101
101
101
101
102
102
101
101
101
101
101
101
101
101
102
103
105
105
105
105
106
106
105
105
104
103
102
101
102
102
102
102
102
102
102
102
103
102
102
103
103
103
103
103
104
105
107
112
126
144
167
186
200
207
195
163
135
120
115
111
108
106
104
103
102
102
101
101
101
101
101
101
101
101
101
102
102
103
103
103
104
105
105
105
106
107
107
108
108
109
110
111
112
112
113
113
114
115
117
118
119
121
122
123
124
126
128
130
131
132
134
135
135
137
138
138
139
140
141
142
141
141
140
138
135
131
127
123
119
115
111
108
105
104
102
100
100
100
100
100
99
99
99
100
100
100
101
101
101
102
102
102
102
102
102
103
103
103
104
104
104
104
105
105
105
106
106
106
107
107
107
107
107
107
108
108
108
108
109
109
109
110
110
109
109
109
109
109
109
109
110
110
110
111
111
110
110
110
111
111
111
111
111
112
112
114
115
115
115
115
116
116
115
114
113
112
112
112
112
112
112
112
112
112
112
112
112
112
112
112
113
113
114
115
115
117
123
138
157
179
200
214
222
211
181
151
134
127
123
120
117
115
113
113
112
112
112
112
112
112
112
112
112
112
113
113
114
114
114
115
115
116
116
117
117
118
118
119
119
120
120
121
121
122
123
124
125
126
127
129
130
131
133
134
136
137
138
139
141
142
143
144
145
146
146
147
148
148
147
147
146
144
141
138
134
129
126
122
119
116
113
111
110
109
108
107
107
107
107
107
107
108
108
108
108
108
108
108
108
108
109
109
109
109
109
110
110
110
110
110
110
110
110
110
110
110
110
110
110
110
110
110
110
110
110
110
110
111
111
110
111
111
111
111
111
111
111
111
111
111
112
112
112
111
111
111
111
111
111
112
112
113
115
116
115
116
116
116
116
116
115
113
112
112
112
112
112
112
112
112
112
112
112
112
112
112
113
113
114
115
115
116
119
128
145
166
190
207
221
221
199
164
140
128
123
120
117
115
113
111
110
110
109
109
109
109
109
109
109
109
110
111
111
111
111
111
111
111
111
112
112
112
113
114
114
115
115
116
117
117
118
118
119
120
121
122
123
124
125
126
127
129
130
131
132
133
134
135
136
137
138
139
139
139
139
139
137
135
133
129
126
122
118
114
110
106
104
102
100
98
97
97
96
96
95
95
95
95
95
95
95
95
95
96
96
97
97
97
97
97
97
97
98
98
99
99
99
99
99
99
99
99
99
99
99
99
100
100
100
101
101
101
101
100
100
100
100
100
100
100
100
100
100
100
100
100
100
100
101
102
103
104
103
103
103
103
103
103
101
100
99
99
99
99
99
99
99
99
99
99
100
99
100
100
100
101
101
103
103
104
107
114
129
148
171
186
197
197
176
144
123
114
111
109
107
106
105
104
103
103
103
102
102
102
102
102
103
104
104
105
105
106
107
107
108
108
109
109
110
111
112
112
113
113
114
115
115
116
117
118
119
120
122
123
124
125
126
128
129
131
132
134
135
137
138
139
140
141
142
142
143
143
144
144
144
142
140
138
135
131
127
123
119
115
112
109
107
105
104
103
102
102
102
102
102
102
102
102
103
103
104
104
104
105
105
105
105
106
107
107
107
107
107
107
107
108
108
108
109
109
109
110
110
110
110
110
110
109
110
110
110
110
110
110
110
110
109
109
110
110
110
110
110
110
111
113
114
114
115
115
115
115
115
113
112
112
111
111
111
110
110
110
110
111
111
111
111
111
111
111
111
113
115
115
117
121
132
150
170
194
209
220
216
190
158
138
129
123
120
117
116
114
113
113
113
112
112
112
113
112
113
114
114
114
114
115
115
115
116
117
117
117
118
119
119
120
121
121
122
122
123
123
125
125
126
127
128
129
130
131
133
134
135
137
138
139
140
141
143
144
145
145
145
146
146
147
146
147
147
145
143
140
137
133
129
126
122
118
116
114
112
111
109
108
108
108
108
108
108
108
109
109
108
109
109
109
110
110
110
110
110
110
110
109
110
110
111
111
111
111
111
111
111
111
111
111
111
111
111
111
111
111
111
111
111
111
112
112
112
112
111
112
111
111
111
111
112
112
114
115
116
116
116
116
117
116
116
115
114
113
113
113
113
113
113
113
113
113
113
113
113
113
113
114
114
115
116
116
116
119
125
142
162
186
206
221
225
207
172
146
133
127
124
121
118
117
115
115
114
114
114
113
114
113
113
113
113
113
114
114
114
114
115
115
116
116
116
117
118
118
118
119
120
120
121
121
122
122
123
123
125
125
127
128
129
130
131
132
134
135
136
137
138
139
139
140
140
141
141
142
142
142
141
140
138
136
132
129
125
121
117
113
111
108
106
103
103
101
100
99
99
99
98
99
99
99
99
100
99
99
99
99
100
100
100
100
100
100
101
101
101
101
101
100
101
100
101
101
101
101
101
101
101
101
102
102
102
102
102
102
102
102
102
102
102
101
101
101
101
102
103
104
105
105
104
105
105
105
105
103
102
101
101
100
100
100
100
100
100
99
100
100
101
101
101
101
102
102
104
104
104
107
114
130
149
172
189
200
201
182
149
127
116
112
109
107
107
105
104
103
102
101
100
101
101
101
101
101
102
102
103
103
103
103
104
104
104
104
105
106
104
102
99
100
99
102
103
104
104
102
105
109
111
113
115
117
118
119
121
122
124
126
127
128
130
131
132
133
134
134
135
136
136
136
136
136
134
133
130
127
123
119
116
112
110
107
105
103
102
101
100
100
99
98
99
99
99
99
100
100
100
100
101
101
101
102
102
102
102
103
103
103
103
104
104
104
105
105
105
105
105
106
106
106
107
106
106
106
107
107
107
107
107
107
107
107
107
107
107
107
108
109
110
112
111
112
113
113
113
113
112
110
110
110
109
109
109
109
109
109
109
109
109
109
110
110
110
110
110
111
112
112
115
121
137
156
180
200
212
218
203
171
144
130
124
120
117
115
114
113
112
111
111
111
112
112
112
113
113
113
113
114
114
114
114
115
116
116
117
117
117
118
119
119
120
121
122
122
123
124
124
125
126
127
128
128
129
131
132
133
135
136
137
139
140
141
142
143
143
144
144
144
145
146
146
145
144
142
140
137
133
129
125
121
119
116
114
112
111
110
109
109
108
108
108
108
108
108
108
109
109
109
109
110
110
110
111
111
111
111
111
111
111
111
111
111
111
111
111
112
112
112
113
112
113
112
112
112
113
113
113
113
113
113
113
113
113
112
113
113
112
113
113
113
114
115
115
117
117
117
117
117
117
117
116
115
114
114
114
113
113
113
113
113
114
114
114
114
114
113
114
114
114
114
116
116
117
121
130
148
168
192
210
223
221
197
163
141
130
125
122
119
117
115
114
114
114
113
113
113
113
113
113
113
113
113
114
114
115
115
116
116
117
117
118
118
119
119
120
121
121
122
122
123
124
125
126
126
127
128
129
130
132
133
134
135
137
139
140
140
141
142
143
144
144
145
145
146
146
145
144
143
141
138
135
131
127
124
120
117
114
112
110
108
107
106
106
106
106
106
106
106
106
106
106
107
107
108
108
108
108
108
108
108
108
108
109
109
110
110
110
109
110
110
110
110
110
110
110
110
110
110
110
110
110
110
110
110
110
110
110
110
110
109
109
108
109
109
109
109
109
110
111
112
113
112
113
113
113
113
112
111
110
109
109
108
108
108
108
108
108
108
108
108
108
108
108
108
108
108
110
110
110
113
122
139
158
182
182
200
212
213
191
157
134
123
117
114
111
109
107
106
105
105
104
103
103
103
103
104
104
104
104
104
104
105
105
105
106
106
107
107
108
108
109
109
110
110
111
111
112
113
113
114
115
116
117
118
119
120
121
122
124
126
127
128
129
130
131
132
133
133
134
134
134
135
135
134
132
129
127
124
121
117
113
110
107
104
101
99
97
96
96
96
96
95
96
95
95
95
95
95
95
95
95
95
96
96
97
97
96
97
97
97
97
98
98
98
99
99
99
99
99
98
99
99
99
99
99
99
99
99
99
100
100
100
100
100
100
99
99
99
100
100
100
101
101
102
104
105
105
105
105
105
105
104
103
102
102
102
102
102
102
102
102
103
103
103
103
103
104
104
104
104
105
107
107
108
112
121
137
158
181
197
208
205
180
149
129
121
117
115
113
111
110
109
108
108
108
108
108
108
108
109
109
109
110
110
110
111
112
112
113
114
114
115
115
116
116
117
118
118
119
119
120
122
123
124
125
126
126
128
128
129
130
132
134
135
136
138
139
140
141
142
143
143
144
145
145
145
145
144
142
140
136
133
129
125
121
118
115
112
110
109
109
107
106
106
105
105
104
104
105
105
105
105
105
106
106
107
107
107
108
108
108
108
108
108
109
109
109
109
109
110
110
110
110
110
110
110
110
111
111
111
111
111
112
111
111
111
111
111
111
111
111
111
111
111
110
110
110
110
111
112
112
113
114
115
115
115
116
116
116
115
114
114
113
113
113
113
114
114
114
114
114
114
114
114
114
114
114
114
115
116
117
119
125
139
158
181
203
217
225
213
183
153
136
129
125
121
119
116
115
114
114
114
113
113
113
114
114
114
115
115
115
115
116
116
116
117
117
117
117
118
119
119
120
120
121
122
123
123
124
125
125
126
127
128
129
130
131
133
134
135
137
139
140
141
142
143
144
144
145
146
146
147
147
147
146
145
143
141
138
134
130
126
122
119
116
114
112
110
109
108
107
107
107
106
106
107
107
107
107
107
108
108
108
109
108
108
108
108
109
109
109
109
109
109
109
110
110
110
110
110
111
110
110
110
110
111
111
111
111
111
111
112
112
112
112
111
112
112
112
111
111
111
111
111
111
111
112
113
113
114
115
115
115
115
115
115
115
114
113
112
112
112
112
112
111
111
111
112
112
112
111
111
111
112
112
112
113
115
115
116
120
131
149
170
194
211
223
219
193
159
138
127
122
119
116
114
113
112
110
110
109
109
109
109
109
109
109
109
109
110
111
111
111
111
112
112
113
113
113
113
113
114
114
115
115
116
117
118
118
119
120
121
122
123
124
125
126
127
129
130
131
133
133
134
135
136
136
137
137
138
138
138
137
137
135
133
130
126
122
118
114
110
107
105
103
102
100
99
98
97
97
96
96
96
96
96
96
97
97
97
97
98
98
98
98
98
98
99
99
99
99
99
99
99
100
99
99
99
99
100
100
100
100
100
100
100
101
100
100
100
101
101
101
101
101
101
101
101
101
101
101
101
100
101
101
101
102
103
105
105
105
105
105
105
104
103
103
102
102
101
102
102
102
101
101
101
102
102
102
102
102
102
103
103
104
105
105
108
116
132
151
173
190
201
202
181
149
128
118
115
112
110
108
107
106
106
105
105
105
105
105
105
105
106
106
107
108
108
108
109
109
110
111
111
111
113
113
114
115
115
116
117
118
118
119
120
121
122
123
124
125
126
128
129
131
132
134
135
137
138
139
140
140
141
141
142
143
143
143
144
143
143
142
140
136
133
129
124
121
118
114
111
109
107
105
104
103
103
103
102
103
103
103
103
103
103
103
104
104
104
105
105
106
106
106
106
107
107
107
108
108
108
109
109
109
109
110
110
110
110
110
111
111
111
111
111
111
112
112
111
111
111
111
112
112
112
112
112
112
112
112
112
112
112
112
113
113
114
116
116
116
116
117
116
116
116
115
114
114
114
113
113
113
113
113
113
113
113
113
113
114
113
114
114
115
116
117
119
125
139
159
181
202
216
224
211
179
150
134
128
124
120
118
116
114
114
114
113
113
113
113
113
113
114
114
114
114
115
114
115
115
116
117
118
118
118
118
119
119
120
120
121
122
123
123
124
125
126
127
128
129
130
131
132
134
135
137
138
139
141
142
142
144
145
145
146
146
146
147
147
147
146
145
142
138
134
130
126
122
119
116
113
111
109
108
106
106
106
106
106
106
105
106
106
106
106
107
107
107
107
107
107
107
107
107
107
108
107
107
108
108
108
108
109
109
109
109
109
109
109
109
109
109
110
110
109
110
110
110
110
110
110
109
110
110
110
110
110
110
110
110
111
111
110
110
110
110
110
110
110
111
111
112
113
114
114
114
115
115
115
114
113
113
112
112
112
112
111
111
112
112
112
112
113
113
112
112
112
113
114
115
115
115
119
127
145
166
190
208
221
222
202
167
143
131
124
121
117
115
114
113
112
111
111
111
111
111
111
112
112
113
113
113
114
114
114
114
115
115
115
116
116
117
117
118
118
119
119
120
120
121
122
124
124
125
126
127
128
129
131
132
133
134
136
137
138
139
140
141
142
143
144
144
144
145
144
144
142
140
137
133
128
124
120
116
113
110
108
105
103
102
101
100
100
101
100
100
100
100
100
100
100
100
100
100
100
101
101
101
101
101
101
101
100
100
101
100
101
101
101
101
101
102
102
102
102
102
102
101
101
101
101
101
101
101
101
102
102
102
102
102
102
102
103
103
103
103
103
103
103
103
103
103
102
102
102
102
103
102
102
102
102
103
104
106
106
106
106
105
106
105
105
104
102
102
102
101
102
102
102
101
102
102
102
101
102
102
102
102
103
104
105
105
107
114
130
150
173
190
202
205
187
155
132
120
115
112
109
106
104
103
103
102
102
102
102
102
102
102
103
103
102
103
103
104
104
105
105
106
106
107
108
108
109
109
110
111
111
112
113
114
114
115
116
117
118
119
120
121
123
124
125
126
129
131
132
133
135
136
137
138
139
139
141
141
142
141
141
140
138
135
132
128
124
120
116
113
110
107
105
103
102
101
100
100
100
100
100
100
100
100
101
101
101
101
102
102
102
102
102
103
103
103
103
103
103
103
104
104
105
105
106
106
106
107
107
107
108
108
107
107
107
108
108
108
109
109
109
109
109
109
109
109
108
108
108
109
109
109
109
109
110
110
110
110
110
110
110
109
110
110
110
110
111
111
111
112
114
115
115
115
115
116
115
115
114
113
112
112
112
112
112
112
112
112
112
113
112
113
113
113
113
114
114
115
116
117
119
126
143
163
186
204
218
221
204
171
145
132
127
122
120
118
116
115
114
113
113
113
113
113
113
113
113
114
114
114
115
115
115
115
116
116
117
117
118
118
119
120
120
121
122
122
123
124
124
125
126
127
128
129
130
131
132
134
136
137
139
140
141
142
143
144
145
146
147
147
148
148
148
148
147
145
143
139
136
131
127
123
120
120
117
114
112
110
108
107
107
106
105
105
105
105
105
106
106
106
106
106
107
107
107
107
107
107
108
108
108
109
109
108
108
109
109
109
109
109
109
109
109
110
109
110
110
110
110
110
111
110
111
111
111
111
111
111
111
111
112
112
111
111
111
112
112
112
112
112
112
112
113
113
113
113
113
113
114
113
114
113
114
114
114
114
114
113
113
113
113
113
113
114
114
115
117
117
117
117
117
117
117
117
116
115
115
114
114
114
114
114
114
114
114
114
114
114
114
113
114
114
115
116
117
117
119
124
139
159
183
204
219
228
217
186
156
137
129
124
121
119
117
115
114
114
114
113
113
113
113
113
113
114
114
114
115
115
116
116
116
116
117
117
117
117
118
118
118
119
119
120
120
121
122
122
123
124
126
127
128
129
130
132
133
135
136
137
139
139
141
142
143
144
144
145
145
146
146
146
145
144
141
138
135
131
127
122
118
114
111
108
106
104
103
102
101
100
99
99
99
99
99
99
99
99
99
99
99
99
99
99
99
100
100
100
100
100
100
100
100
100
100
101
101
101
101
101
101
100
101
101
101
101
101
101
101
101
101
101
101
101
100
100
100
100
100
100
100
101
100
100
100
101
101
101
101
101
101
102
102
102
102
103
103
103
102
101
101
101
101
101
101
101
102
103
105
106
105
105
105
105
105
105
103
102
102
102
102
102
101
102
102
102
102
102
102
102
102
102
102
102
102
104
104
105
109
119
137
157
180
194
205
201
177
145
125
117
113
110
107
106
104
102
102
102
102
103
104
104
104
104
105
105
105
105
105
105
106
107
107
107
107
108
109
109
110
111
111
112
113
114
114
115
115
116
117
118
118
119
121
122
124
125
126
128
129
131
132
134
135
137
138
139
140
141
141
141
142
142
140
138
135
132
128
124
120
116
113
109
106
104
103
102
100
100
99
99
99
99
99
99
99
100
100
100
100
100
100
101
101
101
101
101
101
101
102
102
102
103
103
103
103
103
104
104
105
106
106
106
106
106
106
107
107
107
108
108
108
108
108
108
108
108
108
108
108
108
109
109
109
109
109
109
109
110
110
110
110
110
109
109
110
110
110
111
111
111
113
115
115
114
114
114
114
114
114
113
112
112
112
112
112
112
112
112
111
111
112
112
112
112
112
112
113
113
114
114
115
118
127
144
164
187
205
217
219
200
166
142
130
125
121
118
116
115
114
113
112
112
112
112
112
112
112
112
112
113
113
113
114
114
114
115
115
115
116
117
117
118
119
119
120
120
121
121
122
123
123
124
125
127
128
129
131
132
133
135
136
138
139
141
143
144
145
147
147
148
148
149
149
149
148
147
145
143
139
135
131
127
123
119
116
113
111
109
107
106
105
105
105
105
105
105
105
105
106
106
106
106
106
106
107
107
107
108
108
108
109
109
109
110
110
110
110
110
111
110
110
110
111
111
110
110
110
110
110
111
111
111
110
110
111
111
111
112
112
112
112
112
113
113
113
113
113
113
113
113
113
113
113
113
112
112
113
112
112
112
112
113
112
112
111
111
111
112
112
113
113
113
114
116
116
116
116
117
116
116
115
114
114
113
113
112
112
112
112
112
113
113
113
113
113
113
113
114
114
116
116
117
120
129
146
166
190
208
221
225
208
174
148
133
127
122
119
117
115
114
113
112
112
112
111
111
111
112
112
112
112
112
113
113
113
114
114
115
115
116
116
116
117
117
117
118
118
119
120
120
121
122
123
123
124
125
125
127
128
130
131
133
135
137
138
140
141
142
144
145
146
147
147
148
149
149
149
148
147
145
142
138
134
130
126
122
118
115
112
110
108
107
106
106
106
105
105
105
105
105
105
106
106
107
107
107
107
107
107
107
108
108
108
108
108
109
109
109
109
110
109
109
109
109
110
110
110
110
110
109
109
109
110
110
110
110
110
110
110
110
110
110
111
110
111
110
111
111
111
110
110
111
111
111
111
111
111
111
111
112
111
112
112
112
112
112
112
111
111
111
111
111
111
112
112
112
113
114
114
114
114
114
114
114
113
112
111
110
110
109
109
108
108
108
109
109
109
109
108
108
109
108
109
110
110
110
113
121
138
157
181
199
212
217
199
166
139
125
119
115
112
110
109
107
106
105
105
105
105
105
104
105
105
105
106
106
106
107
106
106
106
107
107
108
108
109
109
110
110
110
111
112
113
113
114
115
116
117
118
119
119
120
122
123
125
126
128
129
131
133
134
135
135
136
137
137
139
139
139
138
138
137
134
132
128
124
120
116
111
108
105
102
100
99
98
97
95
94
94
94
95
94
95
95
95
96
96
96
96
96
96
96
96
96
97
97
97
97
97
97
97
97
97
98
98
98
98
99
99
99
99
99
100
100
100
99
100
100
100
99
99
100
101
100
100
100
100
100
100
101
101
101
102
102
101
102
102
101
101
101
102
102
102
102
102
102
103
105
105
106
106
106
106
106
106
105
104
103
103
103
103
103
103
103
103
103
104
104
104
104
104
105
105
107
108
109
110
115
124
141
161
183
197
206
201
173
144
126
120
118
115
113
112
111
110
109
109
109
109
109
109
109
109
110
110
110
111
111
112
112
113
113
114
115
115
116
116
117
118
119
119
120
120
121
122
123
124
125
126
127
129
130
132
134
135
136
138
140
141
143
144
145
147
148
149
149
150
150
151
151
150
148
146
142
138
134
130
125
121
118
114
112
109
107
106
105
104
104
103
103
103
103
103
104
104
104
104
104
105
105
106
106
107
107
107
107
107
107
107
107
108
108
109
109
109
110
110
110
110
111
111
110
110
110
110
110
111
111
111
110
111
111
111
111
111
111
111
111
111
111
112
112
111
112
111
111
112
112
112
112
112
112
112
112
112
113
113
113
114
115
117
117
116
116
117
117
117
117
116
115
114
113
113
113
113
113
113
114
114
114
114
114
114
114
115
115
116
117
118
119
124
136
154
176
198
213
224
220
195
162
141
132
126
122
120
118
116
115
115
114
113
113
113
113
113
113
114
114
114
115
115
116
116
116
117
118
118
119
119
119
119
120
121
121
122
122
123
124
125
125
126
127
128
129
130
131
133
134
136
137
139
141
143
144
145
146
147
148
148
149
149
150
150
149
148
146
143
140
137
133
129
125
122
119
116
113
111
110
109
108
108
107
108
108
108
108
108
109
109
109
109
109
110
110
109
109
109
109
109
110
110
110
111
111
111
111
111
111
112
112
112
112
112
112
112
111
112
112
112
112
112
112
112
112
112
112
112
112
113
113
113
113
113
113
113
113
113
113
113
114
113
114
113
113
113
114
113
113
113
113
113
114
114
114
115
116
117
117
117
117
118
117
118
117
116
115
114
114
114
114
114
114
114
114
114
114
114
114
114
115
115
116
117
117
117
121
131
149
170
194
212
225
226
204
169
145
133
127
123
120
117
116
115
114
113
112
112
112
112
113
113
113
113
113
114
114
115
115
115
115
116
116
116
116
117
117
118
118
119
120
121
121
122
123
123
124
125
125
126
127
128
130
132
134
135
136
138
139
141
142
144
145
146
147
147
148
148
149
149
149
147
146
143
139
135
131
127
123
119
115
112
109
107
106
105
104
103
103
102
102
102
102
103
103
102
102
102
102
103
102
103
103
103
103
103
103
103
102
103
103
103
103
104
104
104
104
104
104
103
104
103
104
103
103
103
103
103
103
103
104
104
104
104
104
103
104
104
104
104
103
103
103
103
104
104
104
104
104
104
104
103
103
103
104
104
104
106
107
107
107
107
107
107
107
106
105
104
104
104
104
103
103
103
102
102
102
103
103
103
103
104
104
104
105
107
106
108
112
124
143
163
185
200
210
203
176
145
126
118
115
112
109
107
106
105
104
104
103
103
103
103
104
104
104
105
105
106
105
106
106
107
107
108
109
109
109
109
109
110
111
112
112
114
114
116
117
118
119
121
122
123
124
125
127
128
130
131
132
134
136
137
137
138
139
139
139
139
140
140
140
140
139
136
133
130
126
122
117
113
109
107
104
102
100
99
98
98
98
97
97
97
97
98
98
98
98
99
99
99
99
99
99
100
100
100
100
101
101
101
102
102
102
102
103
103
104
104
104
105
105
105
105
105
105
105
106
106
106
106
106
106
106
107
107
107
107
107
107
107
108
108
108
108
109
109
109
108
108
109
109
109
109
110
111
113
113
113
113
114
113
113
113
112
111
111
110
110
110
110
110
109
110
110
111
111
111
112
112
112
112
113
115
115
115
119
130
148
169
192
207
219
215
192
159
138
128
124
121
118
116
114
113
113
113
113
113
112
113
112
113
113
114
114
115
115
116
116
116
117
117
118
118
119
119
120
120
121
121
122
123
123
123
123
124
125
126
127
128
130
131
133
134
135
137
139
140
141
143
144
145
146
147
148
148
149
149
149
149
147
145
142
138
134
130
126
122
118
115
113
110
109
108
106
106
105
105
105
105
105
105
106
106
106
106
106
105
106
106
106
107
107
107
107
107
107
108
108
108
108
108
108
108
109
109
108
108
109
109
109
109
109
110
110
110
110
111
111
110
110
110
110
110
110
110
110
110
111
111
111
111
111
111
111
111
111
110
110
110
110
110
111
111
111
113
114
115
115
115
115
115
115
114
113
113
112
112
111
111
111
111
111
110
110
111
111
110
111
112
112
112
112
113
114
115
115
119
130
149
169
193
210
222
219
196
162
140
129
124
120
117
116
114
113
112
112
112
111
111
111
111
111
111
112
112
113
113
113
114
114
115
115
115
116
117
117
117
117
118
119
119
120
121
122
123
124
125
126
127
128
129
130
132
133
134
135
137
138
140
141
142
144
144
145
145
146
147
147
148
147
146
144
140
137
133
129
124
121
118
115
112
109
108
107
106
105
105
104
104
104
104
104
105
105
105
105
105
105
105
106
106
106
106
106
106
106
107
107
107
107
107
107
107
107
108
108
108
108
108
108
108
108
108
108
108
108
108
109
108
109
109
109
109
109
109
109
108
109
109
109
109
109
109
109
109
109
109
108
109
109
109
109
109
110
110
111
112
112
112
112
112
112
112
111
110
109
109
108
108
108
108
108
108
108
108
108
108
108
108
108
108
108
109
110
111
114
121
137
156
180
199
212
216
199
165
139
125
119
116
113
110
108
107
106
106
105
105
105
105
105
106
106
106
106
106
107
106
107
107
108
108
108
108
109
109
110
110
111
111
112
112
113
114
115
115
116
117
118
119
120
121
122
123
125
127
128
130
131
132
133
134
135
136
137
138
138
139
139
139
138
138
136
134
130
127
122
118
114
110
106
104
101
100
98
97
96
96
96
96
96
96
95
96
96
97
97
97
97
97
98
97
98
98
98
98
99
99
99
100
100
100
100
100
101
102
102
102
102
102
102
103
103
103
103
103
103
104
104
104
104
104
104
104
104
104
105
104
104
104
104
105
105
105
105
106
106
106
105
105
105
105
105
106
106
107
108
110
110
111
111
111
111
111
110
109
108
108
107
107
107
107
107
108
108
108
109
108
109
109
110
110
110
111
112
113
114
118
127
144
164
187
203
214
211
187
154
134
125
121
119
116
115
113
112
112
111
111
111
111
111
111
111
112
113
113
114
114
114
114
115
115
116
116
117
117
118
118
119
119
120
120
121
122
123
124
125
126
127
128
130
131
132
133
134
136
137
139
141
143
144
145
146
147
148
149
148
149
149
150
148
148
145
142
138
135
130
126
122
118
115
112
110
109
107
106
105
104
104
104
103
103
102
103
103
102
102
103
103
104
104
104
105
105
106
106
106
106
106
106
106
107
107
107
107
108
108
109
109
109
109
108
108
109
109
109
109
109
109
109
109
109
109
109
109
110
110
110
110
110
110
110
111
110
110
111
111
111
111
111
111
111
111
111
111
111
111
112
112
113
113
113
114
115
116
115
116
116
116
116
116
115
114
113
113
113
113
112
113
113
113
113
113
113
114
114
114
113
114
115
116
116
117
121
130
149
169
193
210
222
222
201
167
143
132
126
122
119
116
115
113
113
113
112
112
112
113
113
113
113
114
114
115
115
115
115
115
116
116
117
117
118
118
119
119
120
120
121
122
123
123
124
124
125
127
127
129
130
131
132
134
135
137
138
140
141
142
144
145
146
146
147
148
148
149
149
148
147
145
142
139
135
131
127
123
120
117
114
112
110
108
107
106
106
106
106
105
106
106
106
107
106
107
107
107
107
107
108
107
108
108
108
108
108
109
109
109
109
109
109
109
109
109
109
109
109
110
110
110
109
109
109
110
110
110
110
110
110
110
110
110
110
110
110
111
111
111
111
111
111
111
111
112
112
112
112
112
112
112
112
112
112
112
111
111
112
112
112
113
114
114
115
115
115
115
116
116
116
116
116
115
114
113
113
113
113
113
113
113
113
112
112
112
113
112
112
112
113
113
114
115
115
117
123
138
158
182
202
216
223
209
177
148
132
125
120
117
114
113
111
110
109
109
109
109
109
109
109
110
109
110
110
110
110
110
111
111
111
111
112
112
112
113
113
113
114
115
115
116
117
117
118
119
120
120
121
122
123
124
125
127
129
130
132
133
134
135
136
138
138
139
140
140
140
141
140
140
138
136
133
129
125
121
117
114
110
107
104
102
100
99
98
97
97
97
97
97
96
96
96
96
97
97
97
97
97
98
98
98
98
99
99
99
99
100
100
100
100
100
100
100
100
100
100
99
99
99
100
100
100
100
100
100
101
101
101
101
100
100
100
101
101
101
101
101
101
102
102
102
102
102
103
103
103
103
102
102
102
102
103
103
103
103
104
105
107
107
108
108
108
108
108
108
107
106
105
104
104
104
104
104
104
104
103
103
104
105
105
105
106
105
106
108
109
109
112
118
132
151
173
192
204
209
194
162
137
124
119
116
114
112
110
109
108
108
108
108
108
108
108
108
108
108
108
109
109
109
110
110
110
111
111
111
112
113
114
114
115
116
116
117
117
118
119
120
121
122
122
124
125
126
128
129
131
132
134
136
137
139
140
141
143
144
145
145
146
147
147
147
147
146
145
142
139
134
130
126
122
118
115
112
109
107
105
105
104
104
103
103
103
103
103
103
103
103
104
104
104
105
106
106
106
106
106
107
107
107
107
108
108
108
108
109
109
110
110
110
110
110
110
110
110
110
110
110
111
111
111
111
111
111
111
111
112
112
111
111
110
110
111
110
110
110
111
111
111
111
111
111
111
112
111
111
111
111
111
111
111
111
111
112
112
113
115
115
115
115
116
116
115
115
113
113
113
112
112
112
112
112
112
112
113
113
112
113
113
113
113
113
115
116
116
118
123
137
156
178
200
214
224
215
188
157
139
129
125
121
118
116
115
114
112
112
112
112
112
112
113
112
113
113
114
114
114
115
115
115
116
116
116
117
117
118
118
119
120
120
120
121
122
122
123
124
125
126
127
128
129
131
132
134
135
136
138
140
141
142
144
145
145
146
147
148
148
148
148
148
147
145
142
138
134
130
126
122
118
116
113
110
109
107
107
107
106
105
105
105
106
106
106
106
106
107
107
107
107
107
108
108
108
108
109
109
109
109
109
109
109
110
110
110
110
110
110
110
110
110
110
110
110
110
110
110
110
110
111
111
110
111
111
111
111
112
111
111
112
112
112
112
112
112
112
113
113
113
113
113
113
113
113
113
113
113
114
113
113
113
113
113
114
114
114
114
115
116
117
117
117
117
117
117
117
115
115
114
114
113
113
113
113
113
113
113
113
114
113
114
113
114
113
115
116
116
117
123
136
155
178
200
215
226
217
188
156
137
128
123
120
117
115
114
113
112
112
112
112
111
112
112
112
112
113
113
113
113
114
114
114
115
115
116
117
117
117
118
118
119
119
120
121
121
122
123
124
125
126
127
128
130
131
132
134
135
136
138
140
141
141
143
144
145
146
147
148
149
149
149
148
147
145
141
138
134
129
125
121
118
114
112
109
108
107
106
105
104
104
104
104
104
104
104
104
105
104
105
105
105
105
105
105
105
105
105
105
105
105
105
106
106
105
106
105
105
106
106
106
106
106
106
106
105
106
106
106
106
106
106
106
105
106
106
106
106
106
106
106
106
105
106
106
106
106
106
106
106
107
106
106
106
106
106
106
106
106
107
107
107
108
108
107
107
107
107
107
107
106
107
107
108
109
110
110
109
109
109
109
108
107
106
106
106
105
105
105
105
106
106
106
106
106
106
106
106
106
106
107
108
108
110
115
128
147
169
189
203
212
201
171
142
125
119
115
112
110
108
106
105
105
104
105
105
104
104
104
104
104
105
105
105
106
106
107
107
107
108
109
110
111
111
112
112
112
113
113
113
114
115
116
117
117
119
120
121
122
123
125
126
127
129
130
132
133
134
135
137
137
138
138
139
140
140
140
139
138
135
133
129
125
121
117
114
111
108
106
104
102
101
100
99
98
98
97
98
98
98
98
98
98
99
99
99
99
100
100
100
100
100
100
101
101
101
101
101
100
101
101
101
102
102
102
102
102
102
102
102
103
103
103
103
103
103
104
104
104
104
104
105
104
105
105
105
105
105
105
105
106
106
106
107
107
107
107
108
107
107
107
107
107
107
107
108
108
109
110
111
112
112
113
113
113
113
112
111
110
110
109
110
109
110
110
110
110
110
111
111
111
111
111
111
112
113
114
114
116
121
134
152
152
174
195
209
217
209
180
150
133
126
122
120
118
116
115
114
113
113
113
113
113
114
114
114
115
115
115
116
116
116
117
118
118
119
119
119
119
120
121
121
122
122
123
123
124
125
125
126
128
129
130
131
132
133
135
137
138
140
141
142
144
145
147
148
148
149
150
150
150
150
150
149
148
145
142
139
135
131
126
121
118
115
113
110
108
107
106
105
105
104
105
105
104
104
104
105
105
106
107
108
108
109
109
109
109
109
110
110
110
110
110
110
110
110
111
110
111
112
112
112
112
112
112
112
112
112
112
112
112
113
113
113
113
113
113
113
113
113
112
112
112
111
111
111
111
111
111
112
112
111
111
111
112
112
112
112
112
111
111
111
111
111
111
112
112
112
114
115
116
116
117
117
117
117
116
115
114
113
113
113
113
113
113
113
112
113
113
113
113
113
113
114
114
115
116
116
117
122
134
153
174
197
213
225
221
196
163
141
131
125
122
119
117
115
115
114
113
113
113
113
112
113
113
113
113
113
113
114
114
115
115
116
116
116
117
117
118
119
119
120
120
121
122
122
123
123
124
125
126
127
129
130
131
132
133
135
135
136
138
140
141
143
144
144
145
146
147
147
147
148
149
149
147
145
143
140
136
131
127
123
119
116
113
110
108
107
106
105
105
104
104
104
103
104
104
104
105
105
105
105
105
106
106
106
106
107
107
106
106
107
107
107
107
108
108
108
108
108
109
109
109
109
109
109
109
109
110
110
110
110
111
110
110
110
111
110
111
111
111
111
111
111
111
111
111
111
111
111
112
112
112
112
112
112
111
111
111
112
112
113
112
113
112
112
111
111
111
111
111
112
112
113
113
114
114
114
114
114
114
113
113
112
111
110
110
109
109
109
109
109
109
109
109
109
109
109
109
110
109
110
111
112
113
118
130
149
172
193
208
218
210
181
150
131
123
118
114
112
110
108
107
106
106
106
105
105
105
105
105
106
106
107
107
107
107
107
108
109
109
109
109
109
110
110
111
111
112
112
113
114
114
115
116
116
117
118
120
120
122
123
124
126
127
129
130
132
133
134
135
137
138
138
139
140
140
140
139
138
136
134
131
127
123
118
114
111
107
104
102
100
99
98
96
95
95
95
95
96
96
96
96
96
97
97
97
97
97
97
98
98
99
100
100
101
101
101
101
101
101
101
102
102
102
102
102
102
102
102
102
102
103
103
103
103
103
103
103
104
104
104
104
104
104
104
103
103
103
102
103
102
102
102
103
103
103
103
103
104
104
104
104
104
104
104
104
104
103
104
104
105
106
107
108
109
109
109
110
110
110
109
108
107
107
107
107
107
107
108
108
108
108
109
109
109
109
110
110
111
113
114
114
117
123
138
157
180
198
211
215
197
164
139
126
122
119
117
116
115
114
113
112
112
112
112
112
112
112
112
113
113
113
114
114
114
115
115
115
116
117
117
117
117
118
119
120
121
121
122
123
124
125
125
126
127
128
129
131
132
134
135
137
138
140
142
143
144
146
147
148
149
150
151
152
153
153
153
151
148
145
141
136
132
127
123
120
116
113
111
109
108
107
106
105
105
105
104
104
104
104
104
104
104
105
105
105
105
105
106
106
107
107
107
107
107
107
107
108
108
109
109
110
110
110
110
110
111
111
111
111
111
111
111
111
111
111
111
111
112
112
112
112
111
111
111
111
111
112
112
113
113
112
112
112
113
113
113
113
113
113
113
113
113
113
113
112
112
112
112
112
113
113
113
114
115
116
117
117
117
117
117
117
117
116
115
114
114
114
114
114
114
114
114
114
114
114
115
114
115
115
115
116
117
118
118
122
132
151
172
195
212
224
223
201
167
144
132
126
122
119
117
115
114
114
113
113
113
113
113
113
113
113
114
114
114
114
115
115
115
116
116
117
117
117
118
118
119
120
120
121
121
123
123
124
125
125
126
128
129
130
131
132
134
135
137
138
140
141
143
144
145
147
147
148
148
149
150
150
149
148
147
144
141
137
133
129
124
121
118
114
112
110
108
107
107
105
105
105
105
105
105
105
105
106
106
106
106
106
106
107
107
107
107
107
108
108
108
108
108
107
108
107
108
108
108
108
108
109
108
108
108
109
109
109
108
108
108
108
109
109
109
109
109
109
109
109
109
109
109
109
108
109
109
109
108
108
108
108
108
108
108
108
108
108
108
109
109
108
107
107
107
107
107
107
107
107
108
110
111
111
111
111
110
109
109
109
108
107
106
106
105
105
106
106
105
105
105
105
105
105
105
106
106
106
106
108
108
108
112
122
140
161
183
199
210
208
185
152
130
120
115
112
109
107
105
105
104
103
102
102
102
102
102
102
103
103
103
103
103
104
104
104
105
106
106
106
106
106
106
107
107
108
109
110
111
112
113
113
114
115
115
116
118
119
120
122
123
124
126
128
129
131
132
133
134
136
136
137
138
138
138
138
138
137
134
132
129
125
122
117
112
108
105
102
99
97
96
95
95
94
93
93
92
93
93
93
93
94
94
94
95
94
95
95
96
96
96
96
96
96
97
97
97
97
97
97
98
99
99
100
100
100
100
100
100
100
101
101
102
102
102
102
102
103
103
103
104
104
104
104
104
104
105
105
105
105
105
105
105
105
106
106
106
106
107
106
106
107
107
108
108
108
109
111
111
112
112
113
112
112
111
110
110
109
109
109
109
109
109
109
110
110
110
110
110
111
112
112
112
113
115
114
116
120
131
150
171
194
208
218
211
183
152
135
127
123
120
118
116
115
114
113
113
113
113
113
113
113
113
113
113
114
114
114
115
115
115
115
116
116
117
118
118
119
119
120
121
122
123
123
124
125
126
127
128
129
130
132
133
135
136
138
139
141
143
144
145
147
148
149
150
151
151
151
152
152
152
150
148
145
141
141
137
132
128
123
120
116
113
111
110
109
108
107
107
106
106
106
106
106
107
107
107
107
107
107
107
107
108
108
108
108
109
109
109
109
109
109
110
110
110
110
111
111
111
112
112
112
113
113
112
112
111
112
112
112
112
112
112
112
112
112
112
113
113
113
113
113
113
113
113
113
113
114
114
114
114
114
114
114
115
115
115
114
114
114
114
114
115
115
116
117
118
118
118
119
119
118
118
117
116
116
115
115
115
115
115
115
115
115
114
115
115
115
116
116
116
116
117
117
118
120
127
143
163
187
207
222
229
216
184
155
137
129
125
121
119
117
115
114
113
113
113
113
113
113
113
113
113
113
114
114
115
115
115
116
116
116
117
117
117
117
118
119
120
120
121
122
122
123
123
124
125
126
128
129
130
132
133
134
136
138
140
141
143
144
146
146
147
149
150
150
151
151
151
151
149
146
143
139
135
131
126
122
118
115
112
110
108
107
106
105
105
105
105
105
105
105
105
105
105
106
106
106
106
106
106
106
107
107
107
107
106
106
106
107
107
108
107
107
107
107
108
108
107
107
108
107
107
107
107
107
107
107
107
108
108
108
107
108
108
108
108
108
108
108
108
107
107
108
107
107
107
107
107
107
107
108
107
107
107
106
106
105
105
105
105
106
106
107
107
109
110
110
110
110
109
109
109
107
106
106
105
104
104
105
105
105
105
105
105
105
105
105
105
105
105
106
107
107
109
113
124
143
164
187
202
213
206
179
147
127
118
114
111
109
107
105
104
104
104
103
103
103
103
103
103
103
104
104
105
105
105
106
106
106
107
108
108
108
109
109
110
110
111
111
112
113
114
115
116
117
118
119
120
121
122
124
125
127
128
130
132
133
135
136
137
138
139
139
140
140
141
141
141
139
137
134
131
127
123
118
114
110
106
103
101
99
98
97
96
95
95
95
95
95
95
95
95
96
96
97
97
97
97
98
98
98
99
99
99
99
100
100
100
100
100
101
101
101
101
101
101
101
101
101
102
102
102
102
103
103
103
103
103
104
104
104
105
105
105
105
105
105
105
105
105
105
105
106
106
106
106
107
107
108
108
108
108
108
108
108
108
109
109
110
111
112
112
113
113
113
113
113
112
111
110
110
110
110
110
110
110
110
110
111
111
111
111
111
111
111
112
112
113
114
114
116
122
137
157
180
200
214
221
207
176
148
132
126
122
119
117
115
114
113
113
113
113
113
113
113
113
113
113
113
114
114
115
116
116
116
116
117
117
118
118
119
119
120
120
121
122
123
123
124
125
126
127
128
129
130
132
133
135
137
138
140
141
143
